,ECG_Rate_Mean,HRV_MeanNN,HRV_SDNN,HRV_SDANN1,HRV_SDNNI1,HRV_SDANN2,HRV_SDNNI2,HRV_SDANN5,HRV_SDNNI5,HRV_RMSSD,HRV_SDSD,HRV_CVNN,HRV_CVSD,HRV_MedianNN,HRV_MadNN,HRV_MCVNN,HRV_IQRNN,HRV_SDRMSSD,HRV_Prc20NN,HRV_Prc80NN,HRV_pNN50,HRV_pNN20,HRV_MinNN,HRV_MaxNN,HRV_HTI,HRV_TINN,HRV_ULF,HRV_VLF,HRV_LF,HRV_HF,HRV_VHF,HRV_TP,HRV_LFHF,HRV_LFn,HRV_HFn,HRV_LnHF,HRV_SD1,HRV_SD2,HRV_SD1SD2,HRV_S,HRV_CSI,HRV_CVI,HRV_CSI_Modified,HRV_PIP,HRV_IALS,HRV_PSS,HRV_PAS,HRV_GI,HRV_SI,HRV_AI,HRV_PI,HRV_C1d,HRV_C1a,HRV_SD1d,HRV_SD1a,HRV_C2d,HRV_C2a,HRV_SD2d,HRV_SD2a,HRV_Cd,HRV_Ca,HRV_SDNNd,HRV_SDNNa,HRV_DFA_alpha1,HRV_MFDFA_alpha1_Width,HRV_MFDFA_alpha1_Peak,HRV_MFDFA_alpha1_Mean,HRV_MFDFA_alpha1_Max,HRV_MFDFA_alpha1_Delta,HRV_MFDFA_alpha1_Asymmetry,HRV_MFDFA_alpha1_Fluctuation,HRV_MFDFA_alpha1_Increment,HRV_DFA_alpha2,HRV_MFDFA_alpha2_Width,HRV_MFDFA_alpha2_Peak,HRV_MFDFA_alpha2_Mean,HRV_MFDFA_alpha2_Max,HRV_MFDFA_alpha2_Delta,HRV_MFDFA_alpha2_Asymmetry,HRV_MFDFA_alpha2_Fluctuation,HRV_MFDFA_alpha2_Increment,HRV_ApEn,HRV_SampEn,HRV_ShanEn,HRV_FuzzyEn,HRV_MSEn,HRV_CMSEn,HRV_RCMSEn,HRV_CD,HRV_HFD,HRV_KFD,HRV_LZC
0,1.0193501327355166,[[0.98071479]],[[0.94289504]],[[nan]],[[nan]],[[nan]],[[nan]],[[nan]],[[nan]],[[0.93746286]],[[0.93318904]],[[0.96143645]],[[0.95589716]],[[0.98172993]],[[1.]],[[1.01861702]],[[1.15384615]],[[1.00590244]],[[0.97826087]],[[0.99497487]],[[nan]],[[inf]],[[0.96793826]],[[1.01126126]],[[0.89176037]],[[1.04166667]],[[nan]],[[nan]],[[nan]],[[0.49264605]],[[nan]],[[0.83362906]],[[nan]],[[nan]],[[0.59097117]],[[1.31165882]],[[0.93318904]],[[0.94399471]],[[0.98853118]],[[0.88094996]],[[1.01169504]],[[0.98218258]],[[0.95501343]],[[1.02471596]],[[0.98300015]],[[0.89142976]],[[1.38068182]],[[1.00161316]],[[1.00191]],[[1.0013228]],[[1.03844408]],[[1.02386171]],[[0.97446291]],[[0.94414688]],[[0.92124873]],[[1.00693748]],[[0.99221097]],[[0.94720585]],[[0.94028785]],[[1.00848882]],[[0.9906218]],[[0.94692463]],[[0.93854734]],[[1.19525645]],[[1.80978273]],[[1.2040712]],[[1.17630362]],[[1.57709773]],[[0.04874575]],[[1.36194301]],[[6.15615822]],[[3.82877728]],[[1.]],[[1.]],[[1.]],[[1.]],[[1.]],[[1.]],[[1.]],[[1.]],[[1.]],[[1.43837807]],[[0.85873061]],[[1.08745912]],[[0.92420628]],[[1.65743105]],[[1.23273012]],[[1.44287995]],[[0.98496809]],[[0.98460384]],[[1.35204183]],[[0.75436966]]
1,0.9019112077533142,[[1.10899081]],[[1.21219713]],[[nan]],[[nan]],[[nan]],[[nan]],[[nan]],[[nan]],[[1.64639421]],[[1.64169912]],[[1.09306327]],[[1.48458778]],[[1.11334519]],[[1.1047619]],[[0.9922435]],[[1.23790323]],[[0.73636582]],[[1.11377246]],[[1.1327957]],[[nan]],[[inf]],[[1.03406564]],[[1.11655075]],[[1.05447303]],[[inf]],[[nan]],[[nan]],[[nan]],[[4.07058287]],[[nan]],[[4.65264819]],[[nan]],[[nan]],[[0.87489491]],[[0.69439463]],[[1.64169912]],[[1.19523928]],[[1.37352928]],[[1.96222688]],[[0.72814684]],[[1.09918213]],[[0.87030813]],[[0.85378041]],[[0.88027242]],[[0.76764069]],[[inf]],[[1.0188883]],[[1.01792079]],[[1.0198113]],[[0.96519132]],[[0.97158456]],[[1.02758668]],[[1.6178297]],[[1.66416902]],[[1.02483873]],[[0.97655449]],[[1.20996602]],[[1.18111827]],[[1.02099622]],[[0.98017364]],[[1.22815617]],[[1.20334386]],[[0.85797909]],[[1.39056647]],[[0.86492459]],[[0.88814065]],[[0.29013807]],[[0.19382748]],[[1.13374979]],[[0.07656797]],[[0.5715559]],[[1.]],[[1.]],[[1.]],[[1.]],[[1.]],[[1.]],[[1.]],[[1.]],[[1.]],[[1.17442523]],[[1.35113863]],[[1.13170892]],[[1.30343664]],[[1.41821383]],[[1.24172721]],[[1.87656354]],[[1.06991932]],[[1.02864876]],[[1.3026861]],[[1.46513104]]
2,1.0327772184900805,[[0.9678879]],[[1.09406685]],[[nan]],[[nan]],[[nan]],[[nan]],[[nan]],[[nan]],[[0.97372685]],[[0.96812649]],[[1.13036524]],[[1.00603263]],[[0.98039216]],[[1.11111111]],[[1.13333333]],[[1.06899505]],[[1.12364716]],[[0.96509342]],[[0.97516099]],[[nan]],[[inf]],[[0.87837838]],[[0.99151641]],[[1.21822887]],[[1.33333333]],[[nan]],[[nan]],[[nan]],[[0.33229687]],[[nan]],[[0.9309869]],[[nan]],[[nan]],[[0.35259407]],[[1.35257863]],[[0.96812649]],[[1.1043981]],[[0.87660248]],[[1.06920787]],[[1.14082636]],[[1.00907193]],[[1.25991557]],[[0.96725605]],[[0.93626579]],[[0.90405627]],[[1.1380597]],[[1.00023302]],[[1.00049408]],[[0.99997741]],[[1.13792364]],[[1.06905868]],[[0.9465166]],[[1.00094715]],[[0.94189898]],[[0.77808499]],[[1.4233158]],[[0.97412221]],[[1.31752777]],[[0.80202927]],[[1.3397459]],[[0.97620927]],[[1.2617505]],[[1.03174636]],[[0.97303529]],[[0.91845863]],[[1.1924221]],[[3.32845517]],[[5.38666552]],[[0.39991243]],[[1.70382307]],[[1.09768403]],[[1.]],[[1.]],[[1.]],[[1.]],[[1.]],[[1.]],[[1.]],[[1.]],[[1.]],[[2.23988744]],[[0.85392601]],[[1.12021878]],[[0.90184032]],[[inf]],[[1.69389508]],[[2.78278275]],[[0.91402883]],[[0.96795058]],[[1.16247104]],[[0.9798494]]
3,0.9521824290545758,[[1.04972417]],[[1.19033752]],[[nan]],[[nan]],[[nan]],[[nan]],[[nan]],[[nan]],[[1.23544195]],[[1.23608804]],[[1.13395281]],[[1.17692083]],[[1.05612245]],[[1.14285714]],[[1.0821256]],[[1.24358974]],[[0.96351647]],[[1.04787234]],[[1.05699203]],[[nan]],[[inf]],[[0.91413444]],[[1.04824561]],[[1.27331622]],[[inf]],[[nan]],[[nan]],[[nan]],[[1.04554548]],[[nan]],[[1.77038093]],[[nan]],[[nan]],[[0.59057827]],[[0.9815842]],[[1.23608804]],[[1.21621194]],[[1.01632915]],[[1.50337979]],[[0.98395075]],[[1.05969964]],[[1.19667678]],[[1.090858]],[[1.09038419]],[[1.12358597]],[[inf]],[[0.92604211]],[[0.93207857]],[[0.92007166]],[[0.90589652]],[[0.80423028]],[[1.23796921]],[[1.10332602]],[[1.36904248]],[[0.86191479]],[[1.32248186]],[[1.12857325]],[[1.39607318]],[[0.8568083]],[[1.31105572]],[[1.1266422]],[[1.39227742]],[[0.99560901]],[[0.8397954]],[[0.91817426]],[[1.00905015]],[[0.64506402]],[[1.24451488]],[[0.20172851]],[[0.89940898]],[[0.87570716]],[[1.]],[[1.]],[[1.]],[[1.]],[[1.]],[[1.]],[[1.]],[[1.]],[[1.]],[[1.31777585]],[[0.80454076]],[[1.10341752]],[[0.94722737]],[[1.4900026]],[[1.10701341]],[[1.16858527]],[[0.92174166]],[[1.03439833]],[[1.1072566]],[[0.80161746]]
4,1.0632386068147466,[[0.94238348]],[[0.68539393]],[[nan]],[[nan]],[[nan]],[[nan]],[[nan]],[[nan]],[[0.7477801]],[[0.74579356]],[[0.72729848]],[[0.7934993]],[[0.93333333]],[[0.78676471]],[[0.84296218]],[[0.7819991]],[[0.91664534]],[[0.953125]],[[0.93023256]],[[nan]],[[0.83977901]],[[1.24119718]],[[0.969163]],[[0.85667052]],[[0.]],[[nan]],[[nan]],[[nan]],[[13.79776646]],[[nan]],[[19.7908052]],[[nan]],[[nan]],[[0.69718207]],[[0.48784965]],[[0.74579356]],[[0.73828456]],[[1.01016396]],[[0.55061189]],[[0.99003844]],[[0.92015529]],[[0.7309251]],[[1.13401976]],[[1.05617352]],[[1.03727342]],[[inf]],[[1.08209733]],[[1.10320351]],[[1.06556821]],[[1.05355713]],[[1.5200602]],[[0.7488493]],[[0.91828293]],[[0.64456664]],[[1.03520777]],[[0.96429276]],[[0.75116758]],[[0.72498385]],[[1.0744764]],[[0.93064547]],[[0.76608558]],[[0.71297475]],[[1.31322572]],[[1.42810424]],[[1.27439259]],[[1.03936506]],[[0.97302504]],[[-3.90599257]],[[1.57492243]],[[0.45702852]],[[1.35250304]],[[1.]],[[1.]],[[1.]],[[1.]],[[1.]],[[1.]],[[1.]],[[1.]],[[1.]],[[1.37113054]],[[1.30123958]],[[0.99113324]],[[1.05854398]],[[1.69047361]],[[1.17507537]],[[1.392625]],[[1.14607581]],[[0.91184584]],[[1.14541399]],[[0.77703728]]
5,1.0483758524298434,[[0.95386913]],[[0.79667481]],[[nan]],[[nan]],[[nan]],[[nan]],[[nan]],[[nan]],[[0.52147357]],[[0.51949231]],[[0.83520349]],[[0.54669291]],[[0.9451074]],[[0.5483871]],[[0.58023786]],[[0.5]],[[1.52775804]],[[0.99574128]],[[0.93288889]],[[nan]],[[0.08322087]],[[0.93506494]],[[0.97530864]],[[1.06001413]],[[1.]],[[nan]],[[nan]],[[nan]],[[0.30298007]],[[nan]],[[0.44297821]],[[nan]],[[nan]],[[0.68396119]],[[1.55211411]],[[0.51949231]],[[0.82390433]],[[0.6305257]],[[0.42801155]],[[1.58600135]],[[0.89871488]],[[1.30671476]],[[0.90233832]],[[0.86441471]],[[0.83721683]],[[0.3619403]],[[0.95043495]],[[0.95133424]],[[0.94980205]],[[0.85902084]],[[0.79320253]],[[1.40840017]],[[0.46217312]],[[0.61586536]],[[1.28310066]],[[0.86043633]],[[0.93322314]],[[0.76423397]],[[1.17616097]],[[0.89919034]],[[0.86578934]],[[0.75702855]],[[0.99598448]],[[0.60246354]],[[0.95016841]],[[1.02107463]],[[2.00735204]],[[-0.10873834]],[[0.97797401]],[[0.65887914]],[[0.44278973]],[[1.]],[[1.]],[[1.]],[[1.]],[[1.]],[[1.]],[[1.]],[[1.]],[[1.]],[[1.52387295]],[[1.21647044]],[[1.07895749]],[[0.95734063]],[[1.54348438]],[[1.44183183]],[[1.88785866]],[[1.08616035]],[[1.06839861]],[[1.05016755]],[[0.82451352]]
6,0.9664084373776278,[[1.03462736]],[[1.04421099]],[[nan]],[[nan]],[[nan]],[[nan]],[[nan]],[[nan]],[[0.69395902]],[[0.6907985]],[[1.00926287]],[[0.67073327]],[[1.0461165]],[[0.61111111]],[[0.58429754]],[[0.59459459]],[[1.5047221]],[[1.06051282]],[[1.02304147]],[[nan]],[[0.54585153]],[[0.97152597]],[[1.02164502]],[[0.67495522]],[[1.33333333]],[[nan]],[[nan]],[[nan]],[[0.26216927]],[[nan]],[[0.5770693]],[[nan]],[[nan]],[[0.4543106]],[[1.60409418]],[[0.6907985]],[[1.08769418]],[[0.63510306]],[[0.75137832]],[[1.574553]],[[0.96184728]],[[1.71263066]],[[1.35129268]],[[1.31102545]],[[1.26331194]],[[inf]],[[0.99393381]],[[0.99481533]],[[0.99307496]],[[1.05359303]],[[0.91680191]],[[1.11085583]],[[0.66140831]],[[0.72805451]],[[0.97781044]],[[1.02387457]],[[1.07535285]],[[1.1004143]],[[0.96274925]],[[1.04048363]],[[1.01896282]],[[1.05931147]],[[1.161607]],[[0.61467166]],[[0.99528263]],[[1.35072656]],[[0.16557745]],[[-0.3141302]],[[0.34868629]],[[1.18804121]],[[0.30969663]],[[1.]],[[1.]],[[1.]],[[1.]],[[1.]],[[1.]],[[1.]],[[1.]],[[1.]],[[1.72179441]],[[0.77768362]],[[1.03385791]],[[0.70061916]],[[1.6642526]],[[1.14066395]],[[1.18022836]],[[0.8030289]],[[0.939522]],[[0.84632478]],[[0.76254201]]
7,1.0635950959320084,[[0.94023676]],[[0.87116098]],[[nan]],[[nan]],[[nan]],[[nan]],[[nan]],[[nan]],[[0.77823053]],[[0.77376027]],[[0.92653362]],[[0.82769648]],[[0.90229323]],[[1.05263158]],[[1.16661976]],[[0.70689655]],[[1.11944365]],[[0.96666667]],[[0.93224299]],[[nan]],[[0.141527]],[[0.96625767]],[[1.02036199]],[[1.79134322]],[[0.92857143]],[[nan]],[[nan]],[[nan]],[[nan]],[[0.17038004]],[[0.67813976]],[[nan]],[[nan]],[[nan]],[[nan]],[[0.77376027]],[[0.87079312]],[[0.88857427]],[[0.67378211]],[[1.12543745]],[[0.94860092]],[[0.98002838]],[[1.07481895]],[[1.05185585]],[[0.96877587]],[[0.61230769]],[[1.00452373]],[[1.00461361]],[[1.00440121]],[[0.91371239]],[[0.88207957]],[[1.16352445]],[[0.72670519]],[[0.83458599]],[[1.12839838]],[[0.9069191]],[[0.92497331]],[[0.82927361]],[[1.10911741]],[[0.91803124]],[[0.91170853]],[[0.82948297]],[[0.84233798]],[[0.47855782]],[[0.42677291]],[[0.68604967]],[[-5.67834643]],[[-3.70416866]],[[-0.]],[[1.19540937]],[[0.58100432]],[[1.]],[[1.]],[[1.]],[[1.]],[[1.]],[[1.]],[[1.]],[[1.]],[[1.]],[[2.20483488]],[[1.8173678]],[[1.16367713]],[[1.08971028]],[[1.55010518]],[[1.50549944]],[[2.53820849]],[[1.27130042]],[[1.19714286]],[[1.26744566]],[[0.78318067]]
8,0.9722575435067669,[[1.02976578]],[[0.71373464]],[[nan]],[[nan]],[[nan]],[[nan]],[[nan]],[[nan]],[[0.74927765]],[[0.74765623]],[[0.69310384]],[[0.72761941]],[[1.00779901]],[[0.5]],[[0.49613402]],[[0.56623932]],[[0.9525769]],[[1.07758621]],[[0.99661836]],[[nan]],[[0.10771277]],[[1.27271591]],[[1.02222222]],[[0.49990503]],[[0.45454545]],[[nan]],[[nan]],[[nan]],[[2.12813315]],[[nan]],[[3.36010441]],[[nan]],[[nan]],[[0.63335324]],[[0.80196379]],[[0.74765623]],[[0.73818174]],[[1.01283246]],[[0.55190776]],[[0.98734228]],[[0.92324945]],[[0.72883629]],[[1.01316866]],[[0.97520081]],[[0.97126591]],[[0.72627451]],[[1.06358074]],[[1.08895817]],[[1.04471608]],[[0.96223352]],[[1.09231636]],[[0.9415859]],[[0.78025395]],[[0.72445113]],[[1.02375843]],[[0.97986386]],[[0.74689356]],[[0.73071012]],[[1.02742434]],[[0.97719505]],[[0.74878357]],[[0.73025585]],[[0.95942011]],[[0.6352009]],[[0.81501845]],[[0.93692377]],[[1.82313042]],[[2.99195879]],[[0.37570417]],[[0.65995785]],[[0.40806451]],[[1.]],[[1.]],[[1.]],[[1.]],[[1.]],[[1.]],[[1.]],[[1.]],[[1.]],[[1.37569098]],[[1.12711908]],[[1.00277682]],[[1.17304727]],[[1.6060824]],[[1.1036461]],[[1.50275137]],[[0.98154271]],[[1.10863021]],[[1.30443444]],[[0.99471973]]
9,1.0172201251169484,[[0.98266121]],[[0.94704122]],[[nan]],[[nan]],[[nan]],[[nan]],[[nan]],[[nan]],[[0.93396723]],[[0.93299404]],[[0.96375151]],[[0.95044683]],[[0.99033816]],[[0.625]],[[0.63109756]],[[0.52777778]],[[1.0142163]],[[0.99507389]],[[0.97469541]],[[nan]],[[0.89156627]],[[0.95212766]],[[0.98190045]],[[0.71080021]],[[1.33333333]],[[nan]],[[nan]],[[nan]],[[3.91112153]],[[nan]],[[4.49104444]],[[nan]],[[nan]],[[0.87103583]],[[0.62592421]],[[0.93299404]],[[0.95245681]],[[0.97953765]],[[0.8886648]],[[1.0211544]],[[0.98245207]],[[0.97257761]],[[1.13194547]],[[1.16514926]],[[1.11052786]],[[1.25]],[[1.03784185]],[[1.03683212]],[[1.03888072]],[[0.986336]],[[0.8817117]],[[1.10729434]],[[0.87560138]],[[0.9821988]],[[1.31899786]],[[0.53602453]],[[1.09174581]],[[0.68533343]],[[1.22477484]],[[0.7119485]],[[1.0476586]],[[0.79590128]],[[1.20857905]],[[0.56622541]],[[0.91687424]],[[0.7946394]],[[12.56668881]],[[-2.23079698]],[[1.38984227]],[[6.06738175]],[[0.89353222]],[[1.]],[[1.]],[[1.]],[[1.]],[[1.]],[[1.]],[[1.]],[[1.]],[[1.]],[[1.51595272]],[[0.64921351]],[[0.88121036]],[[0.79652403]],[[0.94030337]],[[0.94486695]],[[0.73078685]],[[0.74946437]],[[0.93498902]],[[0.99093808]],[[0.91534146]]
10,0.9403101972527372,[[1.06388511]],[[1.219092]],[[nan]],[[nan]],[[nan]],[[nan]],[[nan]],[[nan]],[[1.88182833]],[[1.87810476]],[[1.14588689]],[[1.76882665]],[[1.06410256]],[[0.72222222]],[[0.67884461]],[[0.69285714]],[[0.66484119]],[[1.0802139]],[[1.05237732]],[[nan]],[[8.17241379]],[[1.03468208]],[[1.15509259]],[[1.02994201]],[[3.]],[[nan]],[[nan]],[[nan]],[[1.88963649]],[[nan]],[[2.0244538]],[[nan]],[[nan]],[[0.93311762]],[[0.84412561]],[[1.87810476]],[[1.11060849]],[[1.684649]],[[2.0947291]],[[0.61233135]],[[1.10350731]],[[0.6774727]],[[1.07714638]],[[1.14195388]],[[1.07635946]],[[1.80125]],[[1.00450316]],[[0.99957368]],[[1.00957315]],[[1.00673493]],[[1.04118805]],[[0.95524598]],[[1.9283804]],[[1.81853933]],[[1.14147776]],[[0.85524098]],[[1.1854985]],[[1.02721187]],[[1.12969516]],[[0.86675529]],[[1.30191727]],[[1.14250869]],[[0.66482894]],[[1.35387693]],[[1.02592622]],[[0.65656735]],[[0.05920063]],[[-0.07977549]],[[2.84335511]],[[3.05824962]],[[1.92794368]],[[1.]],[[1.]],[[1.]],[[1.]],[[1.]],[[1.]],[[1.]],[[1.]],[[1.]],[[0.87656154]],[[0.73875528]],[[1.07059015]],[[0.87298274]],[[1.12295344]],[[0.86853479]],[[0.94005299]],[[0.83157106]],[[0.97414862]],[[1.27839325]],[[0.88908959]]
11,0.8930265457898094,[[1.12006266]],[[1.45463106]],[[nan]],[[nan]],[[nan]],[[nan]],[[nan]],[[nan]],[[1.71563612]],[[1.70922099]],[[1.29870508]],[[1.53173226]],[[1.12318078]],[[0.87121212]],[[0.77562178]],[[0.88932806]],[[0.86176532]],[[1.11584699]],[[1.12461538]],[[nan]],[[inf]],[[1.01142857]],[[1.22222222]],[[1.0032144]],[[inf]],[[nan]],[[nan]],[[nan]],[[0.34283132]],[[nan]],[[0.55085971]],[[nan]],[[nan]],[[0.62222547]],[[1.49883532]],[[1.70922099]],[[1.38496932]],[[1.23234101]],[[2.37089493]],[[0.82715209]],[[1.13140592]],[[1.14392475]],[[1.37920489]],[[1.37249618]],[[1.46837366]],[[inf]],[[0.99587745]],[[0.99648273]],[[0.99540077]],[[1.21683045]],[[1.28547654]],[[0.78840367]],[[1.94183577]],[[1.51280897]],[[1.0035218]],[[0.9973533]],[[1.38604958]],[[1.38233138]],[[1.03971514]],[[0.95352535]],[[1.46907802]],[[1.40988666]],[[0.63578295]],[[1.28912085]],[[0.83212603]],[[0.66904573]],[[-0.09959298]],[[-0.82206127]],[[1.45622445]],[[2.86573584]],[[1.93763767]],[[1.]],[[1.]],[[1.]],[[1.]],[[1.]],[[1.]],[[1.]],[[1.]],[[1.]],[[1.80084194]],[[0.68779625]],[[1.10932458]],[[0.77419788]],[[inf]],[[1.74481215]],[[1.99768893]],[[0.81142702]],[[1.03723239]],[[0.82391786]],[[0.98188842]]
12,0.9708088140320594,[[1.0304037]],[[1.3473131]],[[nan]],[[nan]],[[nan]],[[nan]],[[nan]],[[nan]],[[1.0834932]],[[1.07758267]],[[1.30755848]],[[1.05152301]],[[1.04145078]],[[1.71818182]],[[1.64979647]],[[1.54545455]],[[1.24349261]],[[1.01438725]],[[1.04818911]],[[nan]],[[1.16666667]],[[0.93611111]],[[1.05990783]],[[1.81081081]],[[inf]],[[nan]],[[nan]],[[nan]],[[1.39722732]],[[0.08441645]],[[0.88554691]],[[nan]],[[nan]],[[1.57779213]],[[0.91035315]],[[1.07758267]],[[1.40814252]],[[0.76524963]],[[1.51739657]],[[1.30676528]],[[1.06147313]],[[1.84010812]],[[0.98674242]],[[0.98350419]],[[0.93418333]],[[0.63493985]],[[1.01139523]],[[1.01116591]],[[1.01162374]],[[1.09598446]],[[1.16320173]],[[0.88720153]],[[1.16215996]],[[1.01499706]],[[0.90404655]],[[1.13537258]],[[1.33882838]],[[1.50021633]],[[0.94480782]],[[1.06856821]],[[1.31647947]],[[1.39996552]],[[0.95199479]],[[0.47436333]],[[0.85698411]],[[0.62883397]],[[-0.36333367]],[[-0.2127729]],[[2.05109115]],[[0.06069957]],[[0.15595458]],[[1.]],[[1.]],[[1.]],[[1.]],[[1.]],[[1.]],[[1.]],[[1.]],[[1.]],[[2.66645598]],[[0.81279557]],[[1.15747251]],[[0.82886037]],[[2.22433316]],[[1.73316444]],[[2.60216132]],[[0.91766246]],[[0.95685492]],[[1.16315673]],[[0.66944596]]
13,0.9110872152420291,[[1.09757071]],[[0.77415578]],[[nan]],[[nan]],[[nan]],[[nan]],[[nan]],[[nan]],[[1.0229938]],[[1.01882935]],[[0.70533568]],[[0.93205275]],[[1.11053985]],[[0.74175824]],[[0.66792582]],[[0.6487013]],[[0.75754506]],[[1.12179615]],[[1.06730769]],[[nan]],[[inf]],[[1.04444444]],[[1.08071749]],[[0.73035788]],[[inf]],[[nan]],[[nan]],[[nan]],[[0.96901595]],[[nan]],[[1.55795052]],[[nan]],[[nan]],[[0.62198426]],[[1.01092823]],[[1.01882935]],[[0.73762788]],[[1.38104855]],[[0.75162277]],[[0.72493632]],[[0.95975246]],[[0.5346653]],[[1.31786494]],[[1.32515063]],[[1.37362158]],[[1.98720321]],[[0.98405231]],[[0.98389137]],[[0.98422235]],[[1.0186573]],[[1.16402659]],[[0.84882581]],[[1.09962786]],[[0.9381963]],[[1.13978608]],[[0.86541476]],[[0.78703138]],[[0.68532588]],[[1.14074409]],[[0.86481308]],[[0.82753311]],[[0.71978047]],[[0.66662223]],[[1.44493309]],[[0.92064143]],[[0.53231887]],[[-0.48624359]],[[-0.59507725]],[[7.09227352]],[[2.0489578]],[[2.02090434]],[[1.]],[[1.]],[[1.]],[[1.]],[[1.]],[[1.]],[[1.]],[[1.]],[[1.]],[[1.47344171]],[[1.19732795]],[[1.01448083]],[[0.87451624]],[[1.26377284]],[[1.130309]],[[1.45895763]],[[0.8958882]],[[0.95946248]],[[0.91368994]],[[1.00916408]]
14,0.982997478428409,[[1.01740738]],[[1.36009369]],[[nan]],[[nan]],[[nan]],[[nan]],[[nan]],[[nan]],[[1.66871406]],[[1.6601014]],[[1.33682311]],[[1.64016312]],[[1.01456311]],[[1.]],[[0.98564593]],[[0.80065359]],[[0.81580253]],[[1.02051051]],[[1.01913876]],[[nan]],[[inf]],[[0.94179894]],[[1.10328638]],[[1.14141176]],[[2.5]],[[nan]],[[nan]],[[nan]],[[3.05647158]],[[nan]],[[6.63599771]],[[nan]],[[nan]],[[0.46057416]],[[0.736937]],[[1.6601014]],[[1.30128211]],[[1.2757888]],[[2.16018481]],[[0.78478836]],[[1.12918885]],[[1.0212678]],[[0.98813573]],[[0.97375569]],[[0.98940889]],[[1.00902502]],[[0.9727144]],[[0.9729255]],[[0.97252179]],[[1.20120098]],[[1.15783099]],[[0.87157229]],[[1.78532222]],[[1.5496586]],[[0.88008009]],[[1.16544847]],[[1.2207658]],[[1.40481176]],[[0.91114136]],[[1.11416455]],[[1.29354783]],[[1.43043574]],[[1.03266699]],[[1.29730606]],[[0.9604852]],[[1.24114778]],[[0.14918259]],[[-0.1744663]],[[0.58785516]],[[0.43728102]],[[1.00369321]],[[1.]],[[1.]],[[1.]],[[1.]],[[1.]],[[1.]],[[1.]],[[1.]],[[1.]],[[1.54885067]],[[1.33885389]],[[1.18896201]],[[1.0177945]],[[1.57617251]],[[1.49336984]],[[2.20765792]],[[0.84592928]],[[1.03642442]],[[0.93655978]],[[1.104741]]
15,0.9707312770134375,[[1.02995467]],[[0.8191181]],[[nan]],[[nan]],[[nan]],[[nan]],[[nan]],[[nan]],[[0.96262687]],[[0.95922631]],[[0.79529529]],[[0.93463032]],[[1.04793972]],[[0.92582418]],[[0.88348364]],[[0.8]],[[0.85092222]],[[1.04395604]],[[1.02409639]],[[nan]],[[nan]],[[0.99431818]],[[1.00458716]],[[1.20277778]],[[inf]],[[nan]],[[nan]],[[nan]],[[0.58820732]],[[nan]],[[1.22413358]],[[nan]],[[nan]],[[0.48050927]],[[1.23350368]],[[0.95922631]],[[0.80057078]],[[1.19817517]],[[0.76793625]],[[0.83460312]],[[0.9616384]],[[0.66815728]],[[1.17724868]],[[1.16569572]],[[1.09882428]],[[inf]],[[1.04543582]],[[1.04497642]],[[1.04577329]],[[0.98461157]],[[1.03623912]],[[0.97170978]],[[0.97562371]],[[0.94477702]],[[0.88365624]],[[1.2103622]],[[0.75256268]],[[0.88073309]],[[0.88732304]],[[1.18718206]],[[0.76959908]],[[0.89016765]],[[0.83856468]],[[0.82744428]],[[0.72054698]],[[0.9764642]],[[2.56300919]],[[3.47559813]],[[0.07445492]],[[1.47894448]],[[0.89035633]],[[1.]],[[1.]],[[1.]],[[1.]],[[1.]],[[1.]],[[1.]],[[1.]],[[1.]],[[1.67084322]],[[1.91800814]],[[1.02433745]],[[1.14328402]],[[1.63629409]],[[1.12051483]],[[1.30563068]],[[1.0310347]],[[1.01224695]],[[1.4181998]],[[1.20175512]]
16,1.0043264491272463,[[0.99596068]],[[1.31446276]],[[nan]],[[nan]],[[nan]],[[nan]],[[nan]],[[nan]],[[0.83057241]],[[0.82617592]],[[1.3197938]],[[0.83394086]],[[1.01768868]],[[1.375]],[[1.35115007]],[[2.07291667]],[[1.58301118]],[[0.95285383]],[[1.00495739]],[[nan]],[[0.59723502]],[[0.89385475]],[[1.03418803]],[[1.41724537]],[[1.65]],[[nan]],[[nan]],[[nan]],[[0.15230727]],[[0.04414309]],[[0.26884774]],[[nan]],[[nan]],[[0.56652016]],[[1.62439928]],[[0.82617592]],[[1.3982635]],[[0.59084013]],[[1.15525229]],[[1.69291237]],[[1.01895065]],[[2.36706381]],[[1.10122859]],[[1.08738689]],[[1.0860392]],[[1.51053001]],[[0.97418532]],[[0.97574609]],[[0.97267511]],[[0.98720676]],[[0.89485961]],[[1.15826056]],[[0.78108952]],[[0.88914058]],[[0.9867824]],[[1.02491943]],[[1.38751569]],[[1.41380037]],[[0.95690797]],[[1.05489964]],[[1.28252339]],[[1.34620338]],[[0.70168569]],[[1.24894848]],[[0.77880526]],[[0.73325505]],[[0.1646788]],[[3.55948938]],[[1.00431365]],[[0.6822396]],[[1.1877094]],[[1.]],[[1.]],[[1.]],[[1.]],[[1.]],[[1.]],[[1.]],[[1.]],[[1.]],[[2.18696656]],[[0.91687339]],[[1.14445705]],[[0.83376322]],[[1.59088299]],[[1.14575414]],[[1.101359]],[[0.87186214]],[[1.06247758]],[[0.99877359]],[[0.44135251]]
17,0.9123513329395903,[[1.0961601]],[[1.0501549]],[[nan]],[[nan]],[[nan]],[[nan]],[[nan]],[[nan]],[[1.32095209]],[[1.31520636]],[[0.95803058]],[[1.20507222]],[[1.10526316]],[[0.64912281]],[[0.58730159]],[[0.52380952]],[[0.79517005]],[[1.12548404]],[[1.06777207]],[[nan]],[[4.64285714]],[[0.96275862]],[[1.11574074]],[[0.92722222]],[[inf]],[[nan]],[[nan]],[[nan]],[[3.52158768]],[[nan]],[[6.96283382]],[[nan]],[[nan]],[[0.50579512]],[[0.74182526]],[[1.31520636]],[[1.01643362]],[[1.29393053]],[[1.33683251]],[[0.77301305]],[[1.04119794]],[[0.78570937]],[[1.07205988]],[[1.06663868]],[[1.09654926]],[[1.05075005]],[[1.03012058]],[[1.03356187]],[[1.02704304]],[[1.03740284]],[[0.92240118]],[[1.10668193]],[[1.26357559]],[[1.38351852]],[[1.09129659]],[[0.90228342]],[[1.06173211]],[[0.96534208]],[[1.07250045]],[[0.92096369]],[[1.08195063]],[[1.00249568]],[[1.08590492]],[[0.26580427]],[[0.90324981]],[[0.68723276]],[[-1.26625032]],[[2.19545893]],[[1.86364339]],[[0.66289729]],[[0.15040627]],[[1.]],[[1.]],[[1.]],[[1.]],[[1.]],[[1.]],[[1.]],[[1.]],[[1.]],[[1.24315866]],[[0.76492759]],[[1.0743207]],[[0.91581175]],[[1.4112703]],[[1.1947503]],[[1.5039312]],[[0.83520477]],[[0.92798542]],[[1.02362544]],[[0.88211729]]
18,0.9835087494039815,[[1.01625246]],[[0.75340226]],[[nan]],[[nan]],[[nan]],[[nan]],[[nan]],[[nan]],[[0.89394739]],[[0.89001399]],[[0.74135351]],[[0.87965112]],[[1.03031085]],[[0.78409091]],[[0.76093826]],[[0.84444444]],[[0.84279936]],[[1.04117647]],[[1.00858586]],[[nan]],[[0.65539033]],[[1.034375]],[[1.01431917]],[[1.00557237]],[[0.92857143]],[[nan]],[[nan]],[[nan]],[[0.52440209]],[[nan]],[[0.70897628]],[[nan]],[[nan]],[[0.73966312]],[[1.22050339]],[[0.89001399]],[[0.73245406]],[[1.21510589]],[[0.65189877]],[[0.8229898]],[[0.94697823]],[[0.602799]],[[1.14689121]],[[1.14308102]],[[1.03000839]],[[nan]],[[1.0118347]],[[1.01165205]],[[1.01194933]],[[0.89210641]],[[0.91070541]],[[1.09825737]],[[0.84940795]],[[0.93277446]],[[1.1131301]],[[0.88275971]],[[0.77270338]],[[0.68800918]],[[1.08217156]],[[0.91419933]],[[0.78194227]],[[0.7186211]],[[0.73140086]],[[2.39246127]],[[0.89006563]],[[1.14348241]],[[34.31491299]],[[4.25959978]],[[0.6957832]],[[9.69071922]],[[8.67706957]],[[1.]],[[1.]],[[1.]],[[1.]],[[1.]],[[1.]],[[1.]],[[1.]],[[1.]],[[1.89824519]],[[1.34392322]],[[1.03052645]],[[1.10430259]],[[2.1219308]],[[1.31310946]],[[1.89456344]],[[0.95071023]],[[1.02524209]],[[1.26035715]],[[0.74637933]]
19,0.976753578223409,[[1.02539314]],[[0.71898766]],[[nan]],[[nan]],[[nan]],[[nan]],[[nan]],[[nan]],[[0.8584314]],[[0.85711046]],[[0.70118242]],[[0.83717306]],[[1.02581522]],[[0.81385281]],[[0.79336755]],[[0.83139535]],[[0.8375748]],[[1.04529617]],[[1.01404419]],[[nan]],[[0.5530811]],[[1.07142857]],[[0.96694215]],[[0.72175212]],[[0.75]],[[nan]],[[nan]],[[nan]],[[0.4677513]],[[nan]],[[0.57555404]],[[nan]],[[nan]],[[0.81269745]],[[1.3594808]],[[0.85711046]],[[0.72084523]],[[1.18904451]],[[0.61784051]],[[0.84103545]],[[0.94050115]],[[0.60626106]],[[0.95725575]],[[0.95708652]],[[0.68031136]],[[inf]],[[0.92742196]],[[0.93452579]],[[0.91992989]],[[0.90173005]],[[0.77776885]],[[1.34400678]],[[0.75456284]],[[0.99186633]],[[0.91884448]],[[1.09201956]],[[0.69084661]],[[0.75320332]],[[0.89903819]],[[1.11918968]],[[0.69953422]],[[0.78053973]],[[0.81080923]],[[1.17170496]],[[0.76890002]],[[1.11082778]],[[8.21571267]],[[8.98704845]],[[0.37252189]],[[2.83072384]],[[1.71024763]],[[1.]],[[1.]],[[1.]],[[1.]],[[1.]],[[1.]],[[1.]],[[1.]],[[1.]],[[1.36072021]],[[0.89355163]],[[1.01521917]],[[1.17546793]],[[1.23337812]],[[1.05868333]],[[1.36707523]],[[0.97517452]],[[1.11964161]],[[1.26557916]],[[0.89124139]]
20,0.9458658751627886,[[1.05774971]],[[1.43549683]],[[nan]],[[nan]],[[nan]],[[nan]],[[nan]],[[nan]],[[1.56064616]],[[1.55348484]],[[1.35711165]],[[1.47543173]],[[1.02604167]],[[1.47222222]],[[1.43485618]],[[1.39473684]],[[0.91979359]],[[1.04250128]],[[1.09023869]],[[inf]],[[2.5559833]],[[0.97222222]],[[1.30490998]],[[1.19396103]],[[1.8]],[[nan]],[[nan]],[[nan]],[[0.68574739]],[[nan]],[[1.4117007]],[[nan]],[[nan]],[[0.48793798]],[[1.17734377]],[[1.55348484]],[[1.41786505]],[[1.0956836]],[[2.20275874]],[[0.91268162]],[[1.1003947]],[[1.29409823]],[[1.00094001]],[[1.0223019]],[[0.99135802]],[[inf]],[[1.05051623]],[[1.05099954]],[[1.05008073]],[[0.93272481]],[[1.1084537]],[[0.88525813]],[[1.63468385]],[[1.46079845]],[[0.94263943]],[[1.08136225]],[[1.37524342]],[[1.47367488]],[[0.9664395]],[[1.0488524]],[[1.41152427]],[[1.47111062]],[[0.95855688]],[[0.78787826]],[[0.88960696]],[[0.91145629]],[[2.70018952]],[[3.93111897]],[[0.91264564]],[[0.83003838]],[[0.62517104]],[[1.]],[[1.]],[[1.]],[[1.]],[[1.]],[[1.]],[[1.]],[[1.]],[[1.]],[[2.03152923]],[[1.16432387]],[[1.18084463]],[[0.95573643]],[[inf]],[[1.20137133]],[[1.24088405]],[[0.96487371]],[[1.08216692]],[[1.0481824]],[[1.00738429]]
21,0.9583869166368211,[[1.04363996]],[[0.94181517]],[[nan]],[[nan]],[[nan]],[[nan]],[[nan]],[[nan]],[[1.07383782]],[[1.07007324]],[[0.90243302]],[[1.02893507]],[[1.06233843]],[[1.12380952]],[[1.05767736]],[[1.19466937]],[[0.87707284]],[[1.04597701]],[[1.06149219]],[[nan]],[[0.82635659]],[[1.02515723]],[[0.96031746]],[[1.1293686]],[[1.33333333]],[[nan]],[[nan]],[[nan]],[[0.64921648]],[[nan]],[[1.09719638]],[[nan]],[[nan]],[[0.59170443]],[[1.17184148]],[[1.07007324]],[[0.92338781]],[[1.15885203]],[[0.98809626]],[[0.86293897]],[[0.99850754]],[[0.79682479]],[[0.95059901]],[[0.92799407]],[[0.81818182]],[[0.32854069]],[[1.03369071]],[[1.03544382]],[[1.03174835]],[[0.9137546]],[[0.9630492]],[[1.03498847]],[[1.04970274]],[[1.08825692]],[[0.97607942]],[[1.0451105]],[[0.91108463]],[[0.94257863]],[[0.97151292]],[[1.04589914]],[[0.92572768]],[[0.96046582]],[[0.81338139]],[[1.36384959]],[[0.72476797]],[[1.12253264]],[[1.48299516]],[[1.78762502]],[[0.08422561]],[[13.01604771]],[[3.47984337]],[[1.]],[[1.]],[[1.]],[[1.]],[[1.]],[[1.]],[[1.]],[[1.]],[[1.]],[[1.66850238]],[[1.07164868]],[[1.11171527]],[[1.11723075]],[[1.43298838]],[[2.00101315]],[[2.20296195]],[[1.09991513]],[[1.05939165]],[[1.41811548]],[[1.04584762]]
22,0.9752543995429284,[[1.02555665]],[[0.84227862]],[[nan]],[[nan]],[[nan]],[[nan]],[[nan]],[[nan]],[[1.01391218]],[[1.01061626]],[[0.82128922]],[[0.98864571]],[[1.04022989]],[[0.7]],[[0.67292818]],[[0.69440459]],[[0.83081285]],[[1.06037736]],[[0.99340102]],[[nan]],[[0.58395062]],[[0.98639456]],[[0.98915867]],[[0.92978533]],[[0.9]],[[nan]],[[nan]],[[nan]],[[0.7890519]],[[nan]],[[1.06904796]],[[nan]],[[nan]],[[0.73809197]],[[1.11422838]],[[1.01061626]],[[0.82708872]],[[1.22187434]],[[0.83588662]],[[0.81849617]],[[0.97756276]],[[0.67695704]],[[1.07808556]],[[1.14775024]],[[1.03825137]],[[inf]],[[0.99227994]],[[0.9921503]],[[0.99244633]],[[0.8764091]],[[0.89552952]],[[1.16249251]],[[0.95635506]],[[1.0896654]],[[0.94265436]],[[1.05257981]],[[0.80293158]],[[0.84844545]],[[0.94455197]],[[1.05248816]],[[0.81597382]],[[0.86129781]],[[0.90448307]],[[0.60423473]],[[0.91395669]],[[0.89161641]],[[2.99446191]],[[-0.35834876]],[[1.21933353]],[[0.92143599]],[[0.48312926]],[[1.]],[[1.]],[[1.]],[[1.]],[[1.]],[[1.]],[[1.]],[[1.]],[[1.]],[[1.63705548]],[[1.29263993]],[[1.04774177]],[[1.20283657]],[[1.9314285]],[[1.49048402]],[[1.34972157]],[[1.06557251]],[[1.08087483]],[[1.19333152]],[[1.24941126]]
23,0.8496233138224665,[[1.17760665]],[[1.84177616]],[[nan]],[[nan]],[[nan]],[[nan]],[[nan]],[[nan]],[[2.93581936]],[[2.92607136]],[[1.56399946]],[[2.49303906]],[[1.1506876]],[[1.66013072]],[[1.44287098]],[[1.77142857]],[[0.62745378]],[[1.12987013]],[[1.20571429]],[[inf]],[[inf]],[[1.12636847]],[[1.60362694]],[[1.35063088]],[[1.75]],[[nan]],[[nan]],[[nan]],[[3.37295177]],[[nan]],[[4.26186151]],[[nan]],[[nan]],[[0.79142607]],[[0.63493788]],[[2.92607136]],[[1.78871775]],[[1.63583319]],[[5.23396758]],[[0.61141718]],[[1.23591129]],[[1.09364249]],[[1.07739612]],[[1.11298984]],[[1.19417945]],[[inf]],[[0.99210467]],[[0.99157137]],[[0.99327277]],[[0.90134048]],[[1.11742119]],[[0.8336859]],[[3.0926584]],[[2.67166854]],[[1.0645126]],[[0.94619206]],[[1.84542157]],[[1.73982256]],[[1.09396508]],[[0.9197566]],[[1.94388395]],[[1.78231981]],[[0.98330061]],[[1.05099879]],[[1.04179336]],[[1.03732927]],[[0.05113339]],[[2.91839118]],[[1.00730553]],[[4.7961308]],[[1.56033054]],[[1.]],[[1.]],[[1.]],[[1.]],[[1.]],[[1.]],[[1.]],[[1.]],[[1.]],[[1.61948357]],[[1.34904985]],[[1.18131192]],[[1.28003589]],[[1.72267355]],[[1.52657994]],[[1.72050765]],[[1.08281196]],[[1.07428525]],[[1.12766862]],[[0.97924094]]
24,0.9668314839376695,[[1.03438361]],[[1.1092095]],[[nan]],[[nan]],[[nan]],[[nan]],[[nan]],[[nan]],[[1.15285735]],[[1.14823492]],[[1.07233868]],[[1.11453587]],[[1.03390656]],[[1.07058824]],[[1.0351334]],[[1.07093254]],[[0.96218634]],[[1.0297619]],[[1.04010695]],[[nan]],[[0.80827068]],[[0.99032258]],[[1.06944444]],[[1.18422045]],[[1.2]],[[nan]],[[nan]],[[nan]],[[0.49412066]],[[nan]],[[1.20819091]],[[nan]],[[nan]],[[0.40897589]],[[1.28957415]],[[1.14823492]],[[1.10060224]],[[1.04327335]],[[1.26375715]],[[0.95856808]],[[1.03231344]],[[1.05499673]],[[0.99119509]],[[0.99228088]],[[0.93215738]],[[0.53941745]],[[0.990375]],[[0.99031187]],[[0.99044066]],[[0.9559761]],[[0.84053327]],[[1.20640507]],[[1.05272393]],[[1.26111047]],[[1.0219002]],[[0.98777816]],[[1.11146903]],[[1.09275886]],[[1.00397196]],[[1.0042304]],[[1.10592144]],[[1.10611349]],[[0.89176843]],[[0.81750567]],[[0.90300945]],[[0.89449424]],[[0.80611447]],[[1.07799453]],[[0.95831247]],[[0.48220875]],[[0.66502797]],[[1.]],[[1.]],[[1.]],[[1.]],[[1.]],[[1.]],[[1.]],[[1.]],[[1.]],[[1.57645458]],[[1.06297215]],[[1.1406154]],[[1.06743399]],[[1.88618633]],[[1.30769727]],[[1.82607478]],[[1.04215889]],[[1.05950276]],[[1.26247843]],[[1.38746936]]
25,0.9177199267733925,[[1.09013313]],[[1.09014167]],[[nan]],[[nan]],[[nan]],[[nan]],[[nan]],[[nan]],[[1.36484167]],[[1.35939051]],[[1.00000785]],[[1.25199546]],[[1.08379888]],[[0.90909091]],[[0.83880037]],[[0.97727273]],[[0.79876749]],[[1.1097561]],[[1.09034738]],[[inf]],[[2.20817025]],[[1.03238375]],[[1.21413374]],[[1.22069434]],[[1.8]],[[nan]],[[nan]],[[nan]],[[0.50357438]],[[nan]],[[1.01483688]],[[nan]],[[nan]],[[0.49621229]],[[1.30097913]],[[1.35939051]],[[1.06539874]],[[1.27594871]],[[1.44828924]],[[0.78377507]],[[1.04729383]],[[0.8350352]],[[1.4785823]],[[1.53522634]],[[1.5687946]],[[0.69001863]],[[1.0702661]],[[1.07590317]],[[1.06492846]],[[0.83807187]],[[0.97831858]],[[1.02778105]],[[1.34321188]],[[1.37677162]],[[1.07567472]],[[0.94031448]],[[1.10497344]],[[1.0331152]],[[1.07332623]],[[0.93991382]],[[1.13071592]],[[1.0581124]],[[0.75392947]],[[2.50808683]],[[0.8054036]],[[1.03763973]],[[-3.09756974]],[[-1.32526068]],[[0.59788861]],[[5.75190829]],[[5.48691451]],[[1.]],[[1.]],[[1.]],[[1.]],[[1.]],[[1.]],[[1.]],[[1.]],[[1.]],[[2.37590934]],[[1.61653387]],[[1.12524796]],[[1.35429119]],[[1.16240813]],[[1.34200477]],[[1.76221416]],[[1.07018118]],[[1.16999013]],[[1.01289858]],[[0.86589735]]
26,0.9397906342990351,[[1.06415395]],[[1.24713288]],[[nan]],[[nan]],[[nan]],[[nan]],[[nan]],[[nan]],[[1.29926984]],[[1.29490844]],[[1.1719478]],[[1.22094161]],[[1.07344633]],[[1.04545455]],[[0.97392344]],[[1.02173913]],[[0.96028909]],[[1.04790419]],[[1.04273066]],[[inf]],[[2.39201571]],[[0.99358974]],[[1.18998743]],[[1.1811463]],[[2.66666667]],[[nan]],[[nan]],[[nan]],[[0.63959777]],[[nan]],[[0.86794317]],[[nan]],[[nan]],[[0.73691127]],[[1.19949888]],[[1.29490844]],[[1.23992618]],[[1.04430566]],[[1.60565329]],[[0.95799262]],[[1.06120229]],[[1.18779746]],[[1.23691099]],[[1.22738041]],[[1.22718113]],[[0.73833333]],[[1.00452354]],[[1.0050857]],[[1.00395906]],[[0.95809234]],[[0.97009656]],[[1.03903975]],[[1.27553525]],[[1.3197682]],[[0.88274258]],[[1.1239379]],[[1.16488747]],[[1.31446088]],[[0.89198124]],[[1.11611837]],[[1.17538619]],[[1.31486143]],[[0.85800343]],[[0.86248606]],[[0.8115965]],[[0.8219818]],[[1.44379536]],[[0.88692272]],[[0.98685713]],[[0.45488008]],[[0.58009683]],[[1.]],[[1.]],[[1.]],[[1.]],[[1.]],[[1.]],[[1.]],[[1.]],[[1.]],[[1.6004933]],[[1.31326467]],[[1.1173567]],[[0.95828024]],[[1.95022616]],[[1.18185309]],[[1.11827013]],[[0.96613588]],[[1.10804087]],[[0.83021245]],[[1.05225418]]
27,0.9608711532586358,[[1.04042596]],[[1.018845]],[[nan]],[[nan]],[[nan]],[[nan]],[[nan]],[[nan]],[[0.72232815]],[[0.72222509]],[[0.97925696]],[[0.69426137]],[[1.01802885]],[[1.30952381]],[[1.28636212]],[[1.3167735]],[[1.41051632]],[[1.01776829]],[[1.06087707]],[[0.]],[[0.85352002]],[[1.32307692]],[[1.0776702]],[[1.28530713]],[[0.61778846]],[[nan]],[[nan]],[[nan]],[[0.3834691]],[[nan]],[[1.01959038]],[[nan]],[[nan]],[[0.37198869]],[[1.24257439]],[[0.72222509]],[[1.1287985]],[[0.63981114]],[[0.81526147]],[[1.56298029]],[[0.97683715]],[[1.76427214]],[[1.04420259]],[[0.9979346]],[[0.84025974]],[[inf]],[[0.95688919]],[[0.95937039]],[[0.95476457]],[[1.15365882]],[[0.79081536]],[[1.27400547]],[[0.64215858]],[[0.81502193]],[[0.76224608]],[[1.45403577]],[[0.98550587]],[[1.36114919]],[[0.78254587]],[[1.36913734]],[[0.90498574]],[[1.19705356]],[[1.24920062]],[[1.02626237]],[[1.04983182]],[[1.93216254]],[[7.19160928]],[[-1.58097592]],[[0.45799499]],[[2.72641484]],[[1.26098312]],[[1.]],[[1.]],[[1.]],[[1.]],[[1.]],[[1.]],[[1.]],[[1.]],[[1.]],[[0.84031409]],[[1.04257451]],[[1.04163706]],[[1.02291093]],[[0.66897543]],[[0.87587089]],[[0.79430736]],[[0.96546869]],[[0.96761191]],[[1.03896374]],[[1.01656875]]
28,0.9833999466985726,[[1.01712018]],[[1.010971]],[[nan]],[[nan]],[[nan]],[[nan]],[[nan]],[[nan]],[[1.02327328]],[[1.02069383]],[[0.99395424]],[[1.00604945]],[[1.03414634]],[[1.375]],[[1.32954944]],[[1.32738095]],[[0.98797707]],[[1.00816327]],[[1.01420959]],[[nan]],[[1.28070175]],[[0.98351648]],[[0.98286071]],[[1.59882583]],[[3.625]],[[nan]],[[nan]],[[nan]],[[1.04678309]],[[nan]],[[1.36425707]],[[nan]],[[nan]],[[0.76730103]],[[0.97872125]],[[1.02069383]],[[0.99929679]],[[1.02141276]],[[1.01998199]],[[0.9790362]],[[1.00243574]],[[0.97834836]],[[0.94396552]],[[0.91558442]],[[0.72333333]],[[0.33823529]],[[1.01126292]],[[1.01152703]],[[1.01097235]],[[1.04681818]],[[1.04062132]],[[0.97020198]],[[1.0411954]],[[1.00533976]],[[1.00286422]],[[0.99682218]],[[1.00067774]],[[0.99767915]],[[1.00591501]],[[0.99313174]],[[1.00558479]],[[0.9991997]],[[1.00516396]],[[0.43742877]],[[0.83195249]],[[0.793036]],[[0.22676868]],[[0.81855852]],[[0.30240262]],[[0.08965751]],[[0.15653859]],[[1.]],[[1.]],[[1.]],[[1.]],[[1.]],[[1.]],[[1.]],[[1.]],[[1.]],[[1.05662099]],[[1.1170924]],[[1.07321183]],[[0.96798154]],[[1.48940765]],[[1.37759796]],[[1.32433496]],[[1.13615349]],[[1.01929306]],[[0.93762504]],[[1.00140966]]
29,0.8736312411925633,[[1.14519859]],[[1.62897846]],[[nan]],[[nan]],[[nan]],[[nan]],[[nan]],[[nan]],[[1.78313553]],[[1.77615166]],[[1.42244191]],[[1.55705362]],[[1.14668367]],[[1.57894737]],[[1.37697027]],[[1.75559238]],[[0.91355007]],[[1.10913978]],[[1.15388258]],[[inf]],[[6.43627451]],[[1.1428677]],[[1.36711712]],[[1.80759056]],[[1.48809524]],[[nan]],[[nan]],[[nan]],[[1.06339216]],[[nan]],[[1.79398098]],[[nan]],[[nan]],[[0.59275489]],[[0.97121204]],[[1.77615166]],[[1.60864563]],[[1.10412853]],[[2.85719881]],[[0.90569458]],[[1.13740822]],[[1.45694154]],[[1.07630156]],[[1.04149177]],[[1.21421616]],[[inf]],[[1.02010318]],[[1.01798368]],[[1.02236488]],[[1.19611553]],[[1.38739024]],[[0.75723956]],[[2.09175785]],[[1.54538031]],[[0.99349104]],[[1.00682155]],[[1.60338284]],[[1.61410369]],[[1.04181634]],[[0.96020658]],[[1.66862306]],[[1.60194095]],[[1.05131918]],[[4.72717976]],[[1.21604048]],[[1.38457107]],[[-1.30410383]],[[1.6956477]],[[0.95253346]],[[38.36526777]],[[22.91873389]],[[1.]],[[1.]],[[1.]],[[1.]],[[1.]],[[1.]],[[1.]],[[1.]],[[1.]],[[1.80164214]],[[0.8021304]],[[1.17175494]],[[1.03355263]],[[1.37570867]],[[1.6758305]],[[2.15155743]],[[0.96914515]],[[1.01927705]],[[1.22831225]],[[1.01654814]]
30,0.939468924300646,[[1.06434671]],[[0.87781981]],[[nan]],[[nan]],[[nan]],[[nan]],[[nan]],[[nan]],[[1.04491835]],[[1.03938183]],[[0.82474987]],[[0.9817462]],[[1.05128205]],[[1.]],[[0.95121951]],[[0.91461039]],[[0.84008708]],[[1.07344633]],[[1.05456438]],[[inf]],[[1.18180984]],[[1.03755475]],[[1.08299595]],[[0.91537147]],[[1.14545455]],[[nan]],[[nan]],[[nan]],[[0.38417437]],[[nan]],[[1.05374518]],[[nan]],[[nan]],[[0.36457988]],[[1.43796392]],[[1.03938183]],[[0.85388512]],[[1.21724068]],[[0.88751165]],[[0.82153436]],[[0.9857714]],[[0.70149723]],[[1.04423997]],[[1.00385112]],[[1.00598801]],[[0.40145985]],[[0.99465593]],[[0.99544811]],[[0.99413241]],[[0.90638352]],[[0.94762326]],[[1.06428793]],[[1.01176242]],[[1.07223233]],[[1.28144253]],[[0.83073248]],[[0.96640673]],[[0.77817606]],[[1.24423208]],[[0.84330696]],[[0.97197791]],[[0.80024687]],[[0.90512517]],[[1.19186059]],[[0.90741797]],[[1.09679442]],[[2.74417488]],[[3.07511933]],[[0.6021269]],[[2.29769072]],[[1.64590176]],[[1.]],[[1.]],[[1.]],[[1.]],[[1.]],[[1.]],[[1.]],[[1.]],[[1.]],[[2.08424152]],[[1.12218646]],[[1.10113017]],[[1.12593627]],[[1.34155031]],[[1.07928015]],[[1.58302697]],[[0.96610934]],[[1.0753686]],[[1.09702912]],[[1.30960257]]
31,0.9279706992295034,[[1.07758497]],[[1.09295203]],[[nan]],[[nan]],[[nan]],[[nan]],[[nan]],[[nan]],[[1.24082758]],[[1.23596459]],[[1.01426071]],[[1.1514894]],[[1.08291457]],[[1.37222222]],[[1.26731804]],[[1.31578947]],[[0.8808271]],[[1.06801275]],[[1.0962544]],[[inf]],[[1.79666667]],[[1.06508876]],[[1.08184064]],[[1.50605697]],[[1.63333333]],[[nan]],[[nan]],[[nan]],[[5.61347286]],[[nan]],[[6.85404894]],[[nan]],[[nan]],[[0.81899671]],[[0.53256286]],[[1.23596459]],[[1.06452037]],[[1.16104995]],[[1.31571911]],[[0.86129067]],[[1.03399711]],[[0.91685904]],[[1.22583333]],[[1.19281507]],[[1.57892669]],[[nan]],[[0.98308953]],[[0.98193859]],[[0.98424592]],[[1.02370157]],[[0.93949022]],[[1.06613699]],[[1.19772426]],[[1.27595686]],[[1.11009715]],[[0.89943354]],[[1.12159228]],[[1.00952805]],[[1.07922788]],[[0.92582242]],[[1.13432005]],[[1.05059233]],[[0.9046194]],[[1.7522789]],[[0.85844716]],[[1.24137291]],[[79.47662831]],[[-2.19151846]],[[0.24771956]],[[2.32848172]],[[2.80640011]],[[1.]],[[1.]],[[1.]],[[1.]],[[1.]],[[1.]],[[1.]],[[1.]],[[1.]],[[1.52831098]],[[1.15254295]],[[1.10510962]],[[1.15552055]],[[2.22226035]],[[1.12263379]],[[1.3687394]],[[1.00353399]],[[1.01282553]],[[1.3313907]],[[1.29140073]]
32,0.9079458980510227,[[1.1017282]],[[1.74560189]],[[nan]],[[nan]],[[nan]],[[nan]],[[nan]],[[nan]],[[1.74517047]],[[1.73606165]],[[1.58442152]],[[1.58402983]],[[1.08550353]],[[1.56190476]],[[1.4389215]],[[1.67327409]],[[1.00025047]],[[1.06315789]],[[1.12037037]],[[inf]],[[6.37818697]],[[1.05232558]],[[1.34423771]],[[1.99036074]],[[1.83333333]],[[nan]],[[nan]],[[nan]],[[0.69212859]],[[nan]],[[1.31667453]],[[nan]],[[nan]],[[0.52567491]],[[1.12604821]],[[1.73606165]],[[1.74363827]],[[0.99565416]],[[3.02706553]],[[1.0043675]],[[1.14383724]],[[1.75125265]],[[1.1336436]],[[1.09206996]],[[1.40871344]],[[inf]],[[1.01293167]],[[1.01334267]],[[1.0126235]],[[1.01375536]],[[1.12837533]],[[0.89475909]],[[1.84403088]],[[1.64207634]],[[0.92130236]],[[1.09059158]],[[1.67359925]],[[1.82086362]],[[0.95407308]],[[1.04976197]],[[1.70174635]],[[1.78503113]],[[0.91741646]],[[1.92145109]],[[1.09674192]],[[1.06851433]],[[1.53165843]],[[0.6511935]],[[2.37051723]],[[5.11087473]],[[3.92082592]],[[1.]],[[1.]],[[1.]],[[1.]],[[1.]],[[1.]],[[1.]],[[1.]],[[1.]],[[3.5423851]],[[1.47766727]],[[1.21787897]],[[1.02253073]],[[1.99690166]],[[1.69041491]],[[2.25788585]],[[0.92829651]],[[1.01406296]],[[0.93193656]],[[0.8506305]]
33,0.8994872659710624,[[1.1105415]],[[0.97500962]],[[nan]],[[nan]],[[nan]],[[nan]],[[nan]],[[nan]],[[1.20326819]],[[1.20047093]],[[0.87795904]],[[1.08349772]],[[1.10777638]],[[0.8625]],[[0.77861991]],[[0.87820513]],[[0.81061348]],[[1.14237288]],[[1.1018936]],[[1.21396396]],[[2.38250751]],[[0.91558442]],[[1.13284133]],[[1.31894313]],[[4.41666667]],[[nan]],[[nan]],[[nan]],[[0.32812165]],[[nan]],[[0.77297594]],[[nan]],[[nan]],[[0.42443707]],[[1.52771533]],[[1.20047093]],[[0.95269495]],[[1.25991021]],[[1.14389678]],[[0.79397478]],[[1.01536796]],[[0.7563144]],[[1.14663226]],[[1.12025508]],[[1.00914141]],[[0.28461538]],[[0.92754254]],[[0.92745913]],[[0.92707062]],[[0.90096953]],[[0.73631966]],[[1.59667381]],[[1.02485293]],[[1.51339012]],[[1.27032166]],[[0.80869958]],[[1.07356322]],[[0.85619678]],[[1.16358304]],[[0.86630542]],[[1.06452147]],[[0.91827723]],[[0.72351227]],[[1.00756946]],[[0.71583697]],[[0.91721564]],[[-0.6848609]],[[-0.053601]],[[0.75525196]],[[0.79843746]],[[0.88339649]],[[1.]],[[1.]],[[1.]],[[1.]],[[1.]],[[1.]],[[1.]],[[1.]],[[1.]],[[1.81467953]],[[1.41219825]],[[1.12554775]],[[1.18514268]],[[2.49422939]],[[1.75046551]],[[2.37097117]],[[1.11044973]],[[1.11045051]],[[1.43853049]],[[0.9412283]]
34,0.9013627533957413,[[1.1094624]],[[0.84723993]],[[nan]],[[nan]],[[nan]],[[nan]],[[nan]],[[nan]],[[1.21954805]],[[1.21398065]],[[0.76364907]],[[1.0992243]],[[1.1080402]],[[0.82105263]],[[0.74095607]],[[0.82051282]],[[0.69471788]],[[1.18059655]],[[1.09712877]],[[inf]],[[1.67189266]],[[1.08125]],[[1.05681818]],[[1.08861261]],[[inf]],[[nan]],[[nan]],[[nan]],[[0.71538748]],[[nan]],[[1.22220421]],[[nan]],[[nan]],[[0.58532555]],[[1.14054791]],[[1.21398065]],[[0.81000765]],[[1.49872898]],[[0.9833329]],[[0.66723426]],[[0.99807322]],[[0.54046543]],[[1.11864407]],[[1.10076515]],[[0.86596542]],[[inf]],[[1.04584599]],[[1.05101469]],[[1.04077531]],[[0.79552623]],[[0.91831756]],[[1.09749534]],[[1.16294046]],[[1.27134673]],[[1.28914661]],[[0.78924657]],[[0.91968486]],[[0.71959476]],[[1.24749167]],[[0.81297813]],[[0.94450803]],[[0.76246941]],[[0.71781074]],[[2.82223184]],[[0.83921792]],[[1.39113109]],[[-1.89856311]],[[-2.55340471]],[[0.29075098]],[[1.4576182]],[[4.39396331]],[[1.]],[[1.]],[[1.]],[[1.]],[[1.]],[[1.]],[[1.]],[[1.]],[[1.]],[[1.92442061]],[[1.87542458]],[[1.10841469]],[[1.39078583]],[[1.71598691]],[[1.70597172]],[[2.27486421]],[[1.05883567]],[[1.16552067]],[[1.54767578]],[[1.09922286]]
35,0.9247955706611535,[[1.08151051]],[[1.20955882]],[[nan]],[[nan]],[[nan]],[[nan]],[[nan]],[[nan]],[[1.55133843]],[[1.54444197]],[[1.11839766]],[[1.43441827]],[[1.07317073]],[[1.18181818]],[[1.10123967]],[[1.19767442]],[[0.7797101]],[[1.06667347]],[[1.0847846]],[[inf]],[[5.25700935]],[[0.99428571]],[[1.1353161]],[[1.14052157]],[[1.42857143]],[[nan]],[[nan]],[[nan]],[[0.30952141]],[[nan]],[[0.83638047]],[[nan]],[[nan]],[[0.37007257]],[[1.50694001]],[[1.54444197]],[[1.14503832]],[[1.34880213]],[[1.76846293]],[[0.74141736]],[[1.07344556]],[[0.84894477]],[[1.02783597]],[[1.05559645]],[[1.11756366]],[[0.58333333]],[[1.00055169]],[[1.00205389]],[[0.999267]],[[0.94075429]],[[0.95132515]],[[1.04791848]],[[1.50636425]],[[1.5810415]],[[1.07441149]],[[0.9218222]],[[1.18682187]],[[1.09934015]],[[1.04877271]],[[0.94925321]],[[1.22650478]],[[1.16689538]],[[0.84499518]],[[1.03268279]],[[0.77354337]],[[1.00216332]],[[2.31141965]],[[2.31004133]],[[0.48204898]],[[1.18198764]],[[1.08838205]],[[1.]],[[1.]],[[1.]],[[1.]],[[1.]],[[1.]],[[1.]],[[1.]],[[1.]],[[1.31449381]],[[1.10423561]],[[1.12672831]],[[1.16752121]],[[1.28449096]],[[1.2430029]],[[1.47003797]],[[1.10333378]],[[1.08088488]],[[1.02534824]],[[0.85440129]]
36,1.0185719205649746,[[0.98179324]],[[3.1183408]],[[nan]],[[nan]],[[nan]],[[nan]],[[nan]],[[nan]],[[0.90915116]],[[0.90443165]],[[3.17616853]],[[0.92601081]],[[1.00111607]],[[3.08333333]],[[3.07989978]],[[3.25]],[[3.43232678]],[[0.91627907]],[[1.06370064]],[[nan]],[[nan]],[[0.79117583]],[[1.04098361]],[[1.91609067]],[[2.5]],[[nan]],[[nan]],[[nan]],[[0.01143908]],[[nan]],[[0.04981198]],[[nan]],[[nan]],[[0.22964679]],[[3.13147852]],[[0.90443165]],[[3.51959938]],[[0.25694355]],[[3.18361443]],[[3.89459712]],[[1.16491004]],[[13.70600756]],[[1.09051724]],[[1.04075642]],[[1.07071723]],[[inf]],[[0.99517582]],[[0.99492889]],[[0.99534553]],[[1.12968698]],[[1.07888936]],[[0.94246378]],[[0.93927891]],[[0.87807061]],[[0.90424512]],[[1.11248396]],[[3.34653816]],[[3.71154583]],[[0.95299394]],[[1.04883887]],[[3.03095635]],[[3.17898588]],[[1.16312502]],[[1.25492962]],[[1.70164831]],[[1.15630892]],[[2.13945393]],[[1.46632435]],[[7.14213271]],[[4.56740753]],[[2.65063418]],[[1.]],[[1.]],[[1.]],[[1.]],[[1.]],[[1.]],[[nan]],[[1.]],[[1.]],[[2.56050896]],[[0.44005223]],[[1.30326157]],[[0.41254415]],[[0.135156]],[[inf]],[[inf]],[[0.77091568]],[[0.9638677]],[[0.73723131]],[[0.39853322]]
37,1.0077397146612763,[[0.9922124]],[[0.67561427]],[[nan]],[[nan]],[[nan]],[[nan]],[[nan]],[[nan]],[[1.00022783]],[[0.99585692]],[[0.68091698]],[[1.00807834]],[[0.98178138]],[[0.80357143]],[[0.81859905]],[[0.81481481]],[[0.67551015]],[[0.99531261]],[[0.97598425]],[[nan]],[[0.]],[[1.07932692]],[[1.00381679]],[[0.78691483]],[[0.66666667]],[[nan]],[[nan]],[[nan]],[[1.49072514]],[[nan]],[[1.76386393]],[[nan]],[[nan]],[[0.84514681]],[[0.90197635]],[[0.99585692]],[[0.58593974]],[[1.69955988]],[[0.58352452]],[[0.58843296]],[[0.9275048]],[[0.34478028]],[[1.1217651]],[[1.08830414]],[[1.13324176]],[[inf]],[[0.98639399]],[[0.98648437]],[[0.98633164]],[[1.00189617]],[[0.98276716]],[[1.01275579]],[[0.9870558]],[[1.00217398]],[[0.99576155]],[[1.00614487]],[[0.58468904]],[[0.5877359]],[[0.93821113]],[[1.07746409]],[[0.64815674]],[[0.69462695]],[[0.49944508]],[[1.17459855]],[[0.66866817]],[[0.77887876]],[[0.29887154]],[[-7.27251152]],[[-inf]],[[0.05690512]],[[0.51104224]],[[1.]],[[1.]],[[1.]],[[1.]],[[1.]],[[1.]],[[nan]],[[1.]],[[1.]],[[1.43762056]],[[0.97877903]],[[0.98892022]],[[1.06088558]],[[1.64253314]],[[1.426672]],[[1.83671267]],[[0.92713595]],[[1.10046858]],[[1.33407271]],[[1.25521999]]
38,0.970090488373202,[[1.03114619]],[[0.74618134]],[[nan]],[[nan]],[[nan]],[[nan]],[[nan]],[[nan]],[[0.86492537]],[[0.85961194]],[[0.72364255]],[[0.83879983]],[[1.02325581]],[[0.83333333]],[[0.81439394]],[[0.86993345]],[[0.86271468]],[[1.03225806]],[[1.02796909]],[[nan]],[[0.3125]],[[1.08878505]],[[1.03636364]],[[1.14699671]],[[0.85714286]],[[nan]],[[nan]],[[nan]],[[0.17904552]],[[nan]],[[0.34223268]],[[nan]],[[nan]],[[0.5231704]],[[1.74194229]],[[0.85961194]],[[0.71548594]],[[1.20143473]],[[0.61504646]],[[0.83233897]],[[0.93618928]],[[0.59552525]],[[1.12780191]],[[1.10016392]],[[1.07892501]],[[0.99582605]],[[1.04707079]],[[1.04582374]],[[1.04829368]],[[0.99293066]],[[0.98011726]],[[1.0167598]],[[0.85024864]],[[0.86601985]],[[1.0370984]],[[0.95287414]],[[0.72863947]],[[0.69841737]],[[1.00883639]],[[0.98988064]],[[0.75334734]],[[0.74622842]],[[0.61543087]],[[1.21489335]],[[0.81868666]],[[0.97435168]],[[-0.69502303]],[[-4.37445595]],[[0.67121243]],[[0.37233498]],[[0.89789802]],[[1.]],[[1.]],[[1.]],[[1.]],[[1.]],[[1.]],[[nan]],[[1.]],[[1.]],[[2.00866197]],[[1.58301785]],[[1.10317638]],[[1.06603685]],[[1.62857988]],[[1.38986116]],[[2.30623727]],[[1.04533734]],[[1.07794633]],[[1.70485585]],[[0.92603588]]
39,0.9891584543999282,[[1.01096738]],[[1.11961345]],[[nan]],[[nan]],[[nan]],[[nan]],[[nan]],[[nan]],[[1.16174585]],[[1.15508578]],[[1.10746745]],[[1.14914277]],[[1.01158301]],[[1.2]],[[1.18625954]],[[1.22600619]],[[0.96373354]],[[1.]],[[1.01432939]],[[nan]],[[inf]],[[0.9874477]],[[1.01651718]],[[1.03869313]],[[1.33333333]],[[nan]],[[nan]],[[nan]],[[0.30340446]],[[nan]],[[0.67042558]],[[nan]],[[nan]],[[0.44864733]],[[1.46505787]],[[1.15508578]],[[1.06747182]],[[1.08207754]],[[1.23302152]],[[0.92414939]],[[1.03089415]],[[0.98650472]],[[1.10984916]],[[1.07013329]],[[1.06060606]],[[1.84209428]],[[1.02159537]],[[1.02179457]],[[1.02141012]],[[0.90907559]],[[1.04752595]],[[0.96400778]],[[1.18243789]],[[1.13432166]],[[1.2164454]],[[0.76144042]],[[1.17724949]],[[0.9312345]],[[1.14661124]],[[0.85941303]],[[1.17892829]],[[1.02062219]],[[0.60512208]],[[1.05678444]],[[0.60593768]],[[0.73437017]],[[-1.01765231]],[[1.56091962]],[[0.75274346]],[[0.96560318]],[[1.05087311]],[[1.]],[[1.]],[[1.]],[[1.]],[[1.]],[[1.]],[[1.]],[[1.]],[[1.]],[[1.51232412]],[[0.41485819]],[[1.10405476]],[[0.92561146]],[[nan]],[[inf]],[[inf]],[[1.01606382]],[[1.01537348]],[[0.71546017]],[[0.6674553]]
40,0.9892515377902793,[[1.0106611]],[[0.74361609]],[[nan]],[[nan]],[[nan]],[[nan]],[[nan]],[[nan]],[[0.94747639]],[[0.94356383]],[[0.73577195]],[[0.9374818]],[[1.]],[[0.85714286]],[[0.85714286]],[[0.82857143]],[[0.78487294]],[[1.01652893]],[[1.00384615]],[[nan]],[[nan]],[[1.04109589]],[[1.00749064]],[[0.94696164]],[[0.8]],[[nan]],[[nan]],[[nan]],[[0.50495416]],[[nan]],[[0.65198772]],[[nan]],[[nan]],[[0.77451661]],[[1.18414835]],[[0.94356383]],[[0.69383039]],[[1.3599156]],[[0.6546848]],[[0.7353771]],[[0.94239582]],[[0.51021992]],[[1.24675885]],[[1.21873639]],[[1.10762527]],[[inf]],[[1.04664167]],[[1.04622051]],[[1.04701831]],[[0.86498196]],[[1.04627225]],[[0.96648151]],[[0.96459231]],[[0.92708097]],[[1.27765684]],[[0.75613335]],[[0.78424796]],[[0.60328463]],[[1.20710574]],[[0.82376755]],[[0.81418401]],[[0.67255502]],[[0.6725892]],[[0.67893367]],[[0.44528819]],[[0.75878633]],[[0.37660176]],[[0.6591646]],[[0.05728057]],[[0.07122399]],[[0.2063217]],[[1.]],[[1.]],[[1.]],[[1.]],[[1.]],[[1.]],[[1.]],[[1.]],[[1.]],[[1.24551196]],[[1.42802247]],[[1.00045337]],[[1.11630129]],[[1.43320004]],[[1.73343213]],[[1.66006324]],[[1.01872102]],[[1.08115526]],[[1.3616886]],[[0.69275854]]
41,0.9657684345598918,[[1.03531838]],[[1.32711665]],[[nan]],[[nan]],[[nan]],[[nan]],[[nan]],[[nan]],[[1.0154952]],[[1.00997222]],[[1.281844]],[[0.98085306]],[[1.04141414]],[[0.96153846]],[[0.92333744]],[[1.]],[[1.30688024]],[[1.04315205]],[[1.03969276]],[[nan]],[[0.32631579]],[[0.91685856]],[[1.05172414]],[[1.01422871]],[[2.]],[[nan]],[[nan]],[[nan]],[[0.15815793]],[[nan]],[[0.26341158]],[[nan]],[[nan]],[[0.60034436]],[[1.59827334]],[[1.00997222]],[[1.43433814]],[[0.70413337]],[[1.44868479]],[[1.42018834]],[[1.05221292]],[[2.03701646]],[[1.13366389]],[[1.108471]],[[1.08383598]],[[0.90967742]],[[0.95572238]],[[0.95597588]],[[0.95547073]],[[1.15984088]],[[0.99871299]],[[1.00116616]],[[1.00917696]],[[1.01037971]],[[0.87789309]],[[1.25640661]],[[1.34392404]],[[1.60768409]],[[0.93145603]],[[1.10884826]],[[1.27849756]],[[1.39490089]],[[0.79499497]],[[0.98650359]],[[1.74646847]],[[0.76278224]],[[-3.79503566]],[[-1.41001924]],[[7.00691967]],[[0.49448855]],[[0.74856538]],[[1.]],[[1.]],[[1.]],[[1.]],[[1.]],[[1.]],[[1.]],[[1.]],[[1.]],[[2.29798606]],[[0.192263]],[[1.11720119]],[[0.70628924]],[[0.90986468]],[[nan]],[[nan]],[[0.95819901]],[[1.05407949]],[[0.67061775]],[[0.62229139]]
42,0.9575172960395701,[[1.04462095]],[[0.9592157]],[[nan]],[[nan]],[[nan]],[[nan]],[[nan]],[[nan]],[[0.96494564]],[[0.95935472]],[[0.91824238]],[[0.923727]],[[1.04296875]],[[1.16666667]],[[1.11860175]],[[1.17391304]],[[0.99441888]],[[1.04477765]],[[1.05026775]],[[nan]],[[0.48360656]],[[1.02772322]],[[1.02703036]],[[1.05321863]],[[1.125]],[[nan]],[[nan]],[[nan]],[[0.37271216]],[[0.15575136]],[[0.66697534]],[[nan]],[[nan]],[[0.55885225]],[[1.34824751]],[[0.95935472]],[[0.9602906]],[[0.99893369]],[[0.92136122]],[[1.00151704]],[[0.98862111]],[[0.96165908]],[[1.12492985]],[[1.08115527]],[[1.0366133]],[[inf]],[[1.03537337]],[[1.03460093]],[[1.03615752]],[[1.05355021]],[[1.12709799]],[[0.91679574]],[[1.01848786]],[[0.91835503]],[[0.92946682]],[[1.09895693]],[[0.92557918]],[[1.00650841]],[[0.97664476]],[[1.02648555]],[[0.94839213]],[[0.97257572]],[[0.71958919]],[[1.94213788]],[[0.70278584]],[[0.89177001]],[[4.67457017]],[[-0.73064203]],[[0.30632308]],[[2.27453702]],[[2.56400457]],[[1.]],[[1.]],[[1.]],[[1.]],[[1.]],[[1.]],[[1.]],[[1.]],[[1.]],[[2.80127155]],[[1.16944523]],[[1.05501589]],[[0.98566995]],[[1.30370035]],[[1.52238975]],[[2.00467609]],[[1.02681532]],[[1.04215785]],[[1.31664341]],[[0.84253448]]
43,1.0534947726919472,[[0.94915887]],[[1.05097434]],[[nan]],[[nan]],[[nan]],[[nan]],[[nan]],[[nan]],[[0.91327148]],[[0.90649324]],[[1.10726915]],[[0.96219031]],[[0.94902769]],[[0.92307692]],[[0.97265625]],[[0.96979592]],[[1.15078082]],[[0.94732824]],[[0.94604317]],[[nan]],[[0.21374046]],[[0.91881548]],[[0.96808511]],[[1.03313122]],[[1.33333333]],[[nan]],[[nan]],[[nan]],[[0.52604165]],[[0.19708396]],[[0.55323854]],[[nan]],[[nan]],[[0.95086185]],[[1.12785969]],[[0.90649324]],[[1.18457495]],[[0.7652483]],[[1.07380859]],[[1.30676882]],[[1.01036457]],[[1.54796685]],[[1.08988742]],[[1.03629802]],[[0.98958333]],[[inf]],[[0.96678322]],[[0.96682828]],[[0.96674312]],[[0.92619135]],[[0.94176801]],[[1.04878291]],[[0.8793025]],[[0.92792493]],[[0.97084841]],[[1.05458145]],[[1.16716171]],[[1.21642451]],[[1.00676358]],[[0.99170815]],[[1.05660126]],[[1.04866823]],[[1.05064045]],[[0.50328266]],[[0.80846773]],[[1.17349752]],[[0.38219776]],[[-11.01712115]],[[0.09719246]],[[0.49200355]],[[0.27786769]],[[1.]],[[1.]],[[1.]],[[1.]],[[1.]],[[1.]],[[nan]],[[1.]],[[1.]],[[2.6790045]],[[0.9718761]],[[1.12350954]],[[0.82425262]],[[1.00846507]],[[inf]],[[inf]],[[1.06663103]],[[1.00173641]],[[0.86739885]],[[0.6728502]]
44,0.9866150522126358,[[1.01429985]],[[0.52881302]],[[nan]],[[nan]],[[nan]],[[nan]],[[nan]],[[nan]],[[0.8326247]],[[0.82899152]],[[0.52135768]],[[0.82088608]],[[1.00965251]],[[0.49]],[[0.4853362]],[[0.51804124]],[[0.63511767]],[[1.03013029]],[[0.98643317]],[[nan]],[[0.10638298]],[[1.07126984]],[[0.9893617]],[[0.74076087]],[[0.57142857]],[[nan]],[[nan]],[[nan]],[[0.35528877]],[[nan]],[[0.56282254]],[[nan]],[[nan]],[[0.63124467]],[[1.25998337]],[[0.82899152]],[[0.43695949]],[[1.89718015]],[[0.36223613]],[[0.52709893]],[[0.87317774]],[[0.2303207]],[[1.06476297]],[[1.02969955]],[[1.00468165]],[[inf]],[[1.03608451]],[[1.03817162]],[[1.03405058]],[[0.80996927]],[[0.94564127]],[[1.04006539]],[[0.80566395]],[[0.84493826]],[[1.2427228]],[[0.71420723]],[[0.4869756]],[[0.36921725]],[[1.05935865]],[[0.94029325]],[[0.54628072]],[[0.51466893]],[[0.5966924]],[[1.31918601]],[[0.45084464]],[[0.85408741]],[[-0.20785879]],[[-1.70216564]],[[0.06627271]],[[0.44497125]],[[1.11724476]],[[1.]],[[1.]],[[1.]],[[1.]],[[1.]],[[1.]],[[1.]],[[1.]],[[1.]],[[1.6543321]],[[1.98068919]],[[0.98608407]],[[1.07050924]],[[1.46221325]],[[1.27385598]],[[1.325829]],[[0.98464432]],[[1.09081455]],[[1.60393318]],[[0.95151549]]
45,0.9704726825199514,[[1.03048706]],[[0.70766143]],[[nan]],[[nan]],[[nan]],[[nan]],[[nan]],[[nan]],[[1.15914147]],[[1.15916482]],[[0.68672514]],[[1.12484814]],[[1.03066223]],[[0.89285714]],[[0.86641196]],[[0.8202381]],[[0.6105042]],[[1.05058006]],[[1.03042763]],[[nan]],[[0.]],[[1.07178218]],[[0.98269231]],[[0.96153846]],[[0.57142857]],[[nan]],[[nan]],[[nan]],[[0.87895353]],[[nan]],[[1.15179088]],[[nan]],[[nan]],[[0.76307708]],[[1.04443764]],[[1.15916482]],[[0.6346845]],[[1.82636938]],[[0.73570457]],[[0.54753567]],[[0.95809142]],[[0.34751346]],[[1.2289916]],[[1.2711551]],[[1.32420259]],[[0.4]],[[0.96950762]],[[0.96957209]],[[0.9695121]],[[0.99151515]],[[0.98257257]],[[1.01538473]],[[1.1483365]],[[1.16735233]],[[1.10782311]],[[0.90856775]],[[0.66794106]],[[0.60493033]],[[1.07551672]],[[0.93569384]],[[0.73563077]],[[0.68619466]],[[0.71613403]],[[1.92534198]],[[0.79136236]],[[0.95857595]],[[-14.4996719]],[[2.71808745]],[[0.64464193]],[[0.85356218]],[[1.98010353]],[[1.]],[[1.]],[[1.]],[[1.]],[[1.]],[[1.]],[[1.]],[[1.]],[[1.]],[[0.6835396]],[[0.83022307]],[[0.95765526]],[[1.27241802]],[[1.32638026]],[[1.47249042]],[[1.82882267]],[[1.00354864]],[[1.14966718]],[[1.77349231]],[[0.85484645]]
46,0.9848966067934457,[[1.01562415]],[[0.9708213]],[[nan]],[[nan]],[[nan]],[[nan]],[[nan]],[[nan]],[[0.91032592]],[[0.90709268]],[[0.95588657]],[[0.89632206]],[[1.02]],[[0.95833333]],[[0.93954248]],[[0.93181818]],[[1.06656801]],[[1.01229508]],[[1.01754773]],[[nan]],[[0.52951389]],[[1.01973684]],[[1.00554872]],[[0.94000886]],[[1.]],[[nan]],[[nan]],[[nan]],[[0.64472556]],[[0.38206106]],[[0.5452436]],[[nan]],[[nan]],[[1.18238964]],[[1.14154619]],[[0.90709268]],[[0.98987373]],[[0.91638168]],[[0.89789832]],[[1.09146783]],[[0.98484321]],[[1.08042662]],[[0.84463923]],[[0.83083509]],[[0.97460087]],[[0.25356607]],[[1.03774383]],[[1.03760774]],[[1.03788748]],[[0.9300909]],[[0.98667905]],[[1.01130636]],[[0.90126854]],[[0.91268177]],[[1.14296283]],[[0.82331686]],[[1.05804402]],[[0.89788054]],[[1.09288497]],[[0.90502894]],[[0.99489229]],[[0.90528575]],[[0.80468774]],[[1.16115989]],[[0.7875639]],[[0.87789542]],[[0.72792656]],[[0.8111566]],[[0.90207652]],[[0.96412684]],[[1.34766557]],[[1.]],[[1.]],[[1.]],[[1.]],[[1.]],[[1.]],[[1.]],[[1.]],[[1.]],[[1.37070221]],[[1.41664923]],[[1.04582892]],[[1.17516165]],[[inf]],[[1.21665392]],[[1.57536899]],[[1.11482806]],[[1.00027908]],[[0.80107197]],[[0.92999055]]
47,0.9589196915915471,[[1.0417245]],[[1.34254397]],[[nan]],[[nan]],[[nan]],[[nan]],[[nan]],[[nan]],[[1.06059813]],[[1.05466512]],[[1.28877064]],[[1.01811773]],[[1.03980103]],[[1.20192308]],[[1.15591465]],[[1.17828263]],[[1.26586624]],[[1.03278689]],[[1.04592837]],[[nan]],[[1.875]],[[0.92111293]],[[1.07909633]],[[1.07179487]],[[inf]],[[nan]],[[nan]],[[nan]],[[3.0051091]],[[0.22151201]],[[2.14030789]],[[nan]],[[nan]],[[1.40408326]],[[0.70451591]],[[1.05466512]],[[1.50570039]],[[0.70045967]],[[1.58799302]],[[1.42769899]],[[1.06703008]],[[2.14972212]],[[1.02367877]],[[1.00508042]],[[1.06162117]],[[inf]],[[1.0068009]],[[1.00579529]],[[1.00760625]],[[1.08710169]],[[1.01902395]],[[0.98723754]],[[1.06455696]],[[1.04784455]],[[0.92036021]],[[1.11720066]],[[1.44436532]],[[1.59134313]],[[1.00078908]],[[0.99962358]],[[1.31862706]],[[1.31786489]],[[1.55506795]],[[1.16675166]],[[1.65888967]],[[1.47613695]],[[0.13026564]],[[2.03252538]],[[2.17856592]],[[13.08355654]],[[2.47810063]],[[1.]],[[1.]],[[1.]],[[1.]],[[1.]],[[1.]],[[1.]],[[1.]],[[1.]],[[3.81905717]],[[0.68662702]],[[1.1419968]],[[1.00548458]],[[1.05647846]],[[1.43296463]],[[1.68531112]],[[0.83534382]],[[0.94419903]],[[0.66958103]],[[0.91973046]]
48,0.9987955334616275,[[1.00133295]],[[1.12236954]],[[nan]],[[nan]],[[nan]],[[nan]],[[nan]],[[nan]],[[1.01314726]],[[1.00623539]],[[1.12087547]],[[1.01179861]],[[0.99794239]],[[1.]],[[1.00206612]],[[1.04946237]],[[1.10783374]],[[0.99699349]],[[1.00279808]],[[nan]],[[inf]],[[0.95581395]],[[1.0330136]],[[1.08811467]],[[1.575]],[[nan]],[[nan]],[[nan]],[[0.27665259]],[[0.05847885]],[[0.32247963]],[[nan]],[[nan]],[[0.85073535]],[[1.44043005]],[[1.00623539]],[[1.16687399]],[[0.86234091]],[[1.17414253]],[[1.15968165]],[[1.02226051]],[[1.35321283]],[[1.04244424]],[[1.01008446]],[[1.1042472]],[[inf]],[[1.00443462]],[[1.0045473]],[[1.00431999]],[[1.09031333]],[[1.05290611]],[[0.96194502]],[[1.03239593]],[[0.9869181]],[[0.92391237]],[[1.10935418]],[[1.12143891]],[[1.22882196]],[[0.95458564]],[[1.05573884]],[[1.10665808]],[[1.16379716]],[[0.84029893]],[[2.67770079]],[[1.16147412]],[[1.28419417]],[[-0.84511567]],[[11.09067558]],[[-inf]],[[23.47590929]],[[9.15896351]],[[1.]],[[1.]],[[1.]],[[1.]],[[1.]],[[1.]],[[1.]],[[1.]],[[1.]],[[2.6794914]],[[1.39686416]],[[1.16904722]],[[0.95525879]],[[2.04236162]],[[1.55990688]],[[2.0729237]],[[1.05698486]],[[1.04597251]],[[1.47416906]],[[0.80000585]]
49,0.9434489528470982,[[1.05991209]],[[0.62548433]],[[nan]],[[nan]],[[nan]],[[nan]],[[nan]],[[nan]],[[0.9856249]],[[0.98049459]],[[0.5901285]],[[0.92991194]],[[1.0532674]],[[0.64912281]],[[0.61631177]],[[0.61538462]],[[0.63461622]],[[1.07627119]],[[1.04263566]],[[nan]],[[0.46969697]],[[1.11737089]],[[1.02559424]],[[0.68283107]],[[0.61904762]],[[nan]],[[nan]],[[nan]],[[0.32702148]],[[nan]],[[0.56522926]],[[nan]],[[nan]],[[0.57844253]],[[1.33964502]],[[0.98049459]],[[0.5254848]],[[1.86588285]],[[0.51523585]],[[0.53595084]],[[0.91374695]],[[0.28163358]],[[1.17231675]],[[1.15337155]],[[1.18381766]],[[1.04658197]],[[1.0077802]],[[1.00776337]],[[1.00781504]],[[0.94867208]],[[0.994898]],[[1.0037717]],[[0.97799124]],[[0.98235966]],[[1.34102201]],[[0.70168014]],[[0.60817073]],[[0.43997854]],[[1.18185837]],[[0.8472487]],[[0.67549971]],[[0.57204916]],[[0.32152779]],[[1.22227194]],[[0.37317905]],[[0.58171599]],[[2.18571401]],[[1.57421621]],[[1.47469927]],[[0.46493364]],[[1.0608602]],[[1.]],[[1.]],[[1.]],[[1.]],[[1.]],[[1.]],[[1.]],[[1.]],[[1.]],[[2.06187979]],[[1.34310698]],[[1.0014826]],[[1.17088574]],[[0.91912994]],[[inf]],[[inf]],[[0.97228957]],[[1.14281481]],[[1.98541097]],[[0.86635619]]
50,0.9168143097809587,[[1.09048399]],[[0.98384797]],[[nan]],[[nan]],[[nan]],[[nan]],[[nan]],[[nan]],[[1.25347437]],[[1.24642521]],[[0.90221223]],[[1.1494662]],[[1.10084034]],[[0.71146245]],[[0.64629032]],[[0.71991911]],[[0.78490117]],[[1.10815603]],[[1.07100509]],[[nan]],[[2.00660066]],[[1.00956938]],[[1.08396947]],[[0.79418628]],[[1.33333333]],[[nan]],[[nan]],[[nan]],[[1.15271471]],[[0.1741571]],[[1.36066568]],[[nan]],[[nan]],[[0.84715686]],[[0.96851161]],[[1.24642521]],[[0.94555868]],[[1.31818816]],[[1.17856919]],[[0.75862143]],[[1.02181466]],[[0.71732053]],[[1.02755594]],[[1.00700002]],[[1.12992089]],[[0.63616071]],[[1.04897518]],[[1.04942395]],[[1.04841375]],[[0.92373957]],[[0.98787868]],[[1.00940298]],[[1.2379812]],[[1.25138916]],[[1.03637319]],[[0.9511993]],[[0.96258709]],[[0.92216272]],[[1.01347841]],[[0.98297848]],[[0.9883469]],[[0.9733463]],[[0.69360433]],[[0.88613678]],[[0.81972842]],[[0.98744352]],[[3.97186307]],[[7.92282197]],[[0.55974168]],[[1.51646388]],[[1.05992163]],[[1.]],[[1.]],[[1.]],[[1.]],[[1.]],[[1.]],[[1.]],[[1.]],[[1.]],[[3.3994743]],[[1.77057108]],[[1.09002139]],[[1.14961818]],[[2.44607218]],[[inf]],[[inf]],[[0.98705574]],[[1.09601849]],[[1.56434557]],[[0.98341741]]
51,0.9347547925316727,[[1.07014442]],[[0.58495203]],[[nan]],[[nan]],[[nan]],[[nan]],[[nan]],[[nan]],[[1.15749577]],[[1.15125792]],[[0.54661036]],[[1.08162575]],[[1.06004141]],[[0.66666667]],[[0.62890625]],[[0.56060606]],[[0.50536154]],[[1.11531532]],[[1.04761905]],[[nan]],[[1.81443299]],[[1.15920398]],[[1.05813953]],[[1.15941186]],[[0.57142857]],[[nan]],[[nan]],[[nan]],[[1.23936438]],[[nan]],[[2.75280622]],[[nan]],[[nan]],[[0.4502097]],[[0.94569866]],[[1.15125792]],[[0.48509392]],[[2.37326375]],[[0.55846995]],[[0.42136179]],[[0.9245722]],[[0.20439967]],[[1.12288439]],[[1.05538997]],[[1.03419643]],[[inf]],[[1.0126659]],[[1.01315097]],[[1.01217078]],[[0.87641166]],[[0.91412215]],[[1.07393017]],[[1.10071318]],[[1.19305792]],[[1.29737769]],[[0.72850666]],[[0.55234817]],[[0.41395779]],[[1.15179582]],[[0.86412557]],[[0.61956694]],[[0.53671486]],[[0.4302115]],[[1.73764363]],[[0.36508903]],[[0.80455689]],[[2.36157917]],[[1.436582]],[[0.12664376]],[[0.2025246]],[[0.88237203]],[[1.]],[[1.]],[[1.]],[[1.]],[[1.]],[[1.]],[[1.]],[[1.]],[[1.]],[[1.46431262]],[[2.20463854]],[[1.01818319]],[[1.47812726]],[[1.65776065]],[[1.42133713]],[[1.83685196]],[[1.12742852]],[[1.19476736]],[[1.39626043]],[[1.22747733]]
52,0.9710425860805111,[[1.03003138]],[[1.04653928]],[[nan]],[[nan]],[[nan]],[[nan]],[[nan]],[[nan]],[[1.09139163]],[[1.08442629]],[[1.01602653]],[[1.05957115]],[[1.02480159]],[[0.91666667]],[[0.89445669]],[[0.97794118]],[[0.95890594]],[[1.05116749]],[[1.02671756]],[[nan]],[[1.92125984]],[[0.94954128]],[[1.03243903]],[[1.27150445]],[[1.28571429]],[[nan]],[[nan]],[[nan]],[[nan]],[[0.23600787]],[[1.04702742]],[[nan]],[[nan]],[[nan]],[[nan]],[[1.08442629]],[[1.04857988]],[[1.03418372]],[[1.13711092]],[[0.96694949]],[[1.01686958]],[[1.01392188]],[[0.99222959]],[[0.96503414]],[[0.99279123]],[[1.04779221]],[[0.99377285]],[[0.99420219]],[[0.99331714]],[[0.97019508]],[[1.0446873]],[[0.96661979]],[[1.10836257]],[[1.06615357]],[[1.01819932]],[[0.98317285]],[[1.05803437]],[[1.0396573]],[[1.02025483]],[[0.98142698]],[[1.06433323]],[[1.04386667]],[[0.77300082]],[[0.73203994]],[[0.82890453]],[[0.79937135]],[[1.27436294]],[[1.38393932]],[[1.05333569]],[[0.4352684]],[[0.5375107]],[[1.]],[[1.]],[[1.]],[[1.]],[[1.]],[[1.]],[[1.]],[[1.]],[[1.]],[[2.95324886]],[[1.6031151]],[[1.09169726]],[[0.98508745]],[[2.78706683]],[[1.40310441]],[[1.69802003]],[[1.05822603]],[[1.14243331]],[[1.28930529]],[[0.97047413]]
53,0.9614361584870013,[[1.03990777]],[[0.64603864]],[[nan]],[[nan]],[[nan]],[[nan]],[[nan]],[[nan]],[[0.95822515]],[[0.95329267]],[[0.62124609]],[[0.92145206]],[[1.0338013]],[[0.6]],[[0.58038462]],[[0.65789474]],[[0.67420403]],[[1.06160338]],[[1.01526718]],[[nan]],[[0.41895604]],[[1.07655502]],[[1.0202952]],[[0.68522521]],[[0.85714286]],[[nan]],[[nan]],[[nan]],[[0.36595268]],[[0.73687297]],[[0.51867674]],[[nan]],[[nan]],[[0.70555245]],[[1.35549758]],[[0.95329267]],[[0.57443699]],[[1.65952589]],[[0.54760645]],[[0.60258228]],[[0.92349343]],[[0.34614569]],[[1.03063187]],[[1.00828946]],[[0.97916667]],[[2.41176471]],[[0.97335486]],[[0.97214047]],[[0.97461619]],[[0.86774817]],[[0.80161491]],[[1.22121426]],[[0.85310559]],[[1.05296551]],[[1.19489324]],[[0.80374272]],[[0.62762129]],[[0.51451131]],[[1.07187051]],[[0.92707693]],[[0.6675772]],[[0.62081931]],[[0.60719676]],[[2.63551762]],[[0.94449823]],[[0.86749894]],[[-21.23556867]],[[2.23151566]],[[0.84877745]],[[1.72526252]],[[3.89880147]],[[1.]],[[1.]],[[1.]],[[1.]],[[1.]],[[1.]],[[nan]],[[1.]],[[1.]],[[1.35059041]],[[1.13609694]],[[0.98702899]],[[1.00952207]],[[1.58500153]],[[1.77591241]],[[2.10266845]],[[0.83902083]],[[1.12113104]],[[1.43795186]],[[0.87215035]]
54,0.9697491522327042,[[1.03150711]],[[1.35750317]],[[nan]],[[nan]],[[nan]],[[nan]],[[nan]],[[nan]],[[1.31586247]],[[1.30999875]],[[1.31603875]],[[1.27566987]],[[1.03219316]],[[1.03333333]],[[1.00104547]],[[1.03225806]],[[1.03164315]],[[1.03694374]],[[1.03613485]],[[inf]],[[4.05025126]],[[0.91203704]],[[1.06390977]],[[0.99026735]],[[1.66666667]],[[nan]],[[nan]],[[nan]],[[1.05769008]],[[nan]],[[1.72497063]],[[nan]],[[nan]],[[0.613162]],[[0.97900385]],[[1.30999875]],[[1.38246559]],[[0.94758546]],[[1.81103466]],[[1.05531621]],[[1.08051403]],[[1.45894452]],[[0.92648679]],[[0.90562996]],[[0.95698925]],[[1.02739726]],[[1.08373921]],[[1.08184433]],[[1.08554617]],[[1.0126787]],[[1.30511767]],[[0.79688024]],[[1.49462467]],[[1.16792363]],[[0.74743606]],[[1.45156984]],[[1.19520447]],[[1.66550589]],[[0.82234481]],[[1.25819704]],[[1.24035793]],[[1.53420191]],[[0.86433403]],[[1.97389749]],[[0.77977735]],[[0.97461301]],[[-0.47437973]],[[-2.41524705]],[[0.33654388]],[[10.72004964]],[[4.19742023]],[[1.]],[[1.]],[[1.]],[[1.]],[[1.]],[[1.]],[[1.]],[[1.]],[[1.]],[[2.08661515]],[[0.91629169]],[[1.1235554]],[[0.89212438]],[[inf]],[[1.55487239]],[[1.64244364]],[[1.00628551]],[[1.05566893]],[[1.50402126]],[[0.90513668]]
55,1.0136373647541737,[[0.98880139]],[[1.41770887]],[[nan]],[[nan]],[[nan]],[[nan]],[[nan]],[[nan]],[[1.26744321]],[[1.26920363]],[[1.43376518]],[[1.2817975]],[[0.99610895]],[[1.28571429]],[[1.29073661]],[[1.]],[[1.11856421]],[[0.97786885]],[[1.01325758]],[[inf]],[[2.81123737]],[[1.0027027]],[[1.]],[[1.25102459]],[[1.]],[[nan]],[[nan]],[[nan]],[[4.83758877]],[[nan]],[[5.10575027]],[[nan]],[[nan]],[[0.94748163]],[[0.51675025]],[[1.26920363]],[[1.64672908]],[[0.77075305]],[[2.09002552]],[[1.29745871]],[[1.09583723]],[[2.13659299]],[[0.8210683]],[[0.83041914]],[[0.89255575]],[[nan]],[[1.15956585]],[[1.18072776]],[[1.14223412]],[[0.99299961]],[[1.66296519]],[[0.66181205]],[[1.62698579]],[[1.0263734]],[[1.3261233]],[[0.84785891]],[[1.89617912]],[[1.51629849]],[[1.37030213]],[[0.82372547]],[[1.83729354]],[[1.42457021]],[[1.80154012]],[[2.94566818]],[[1.45070619]],[[1.99554152]],[[5.14154868]],[[2.25357388]],[[0.12983552]],[[12.14304515]],[[7.04644801]],[[1.]],[[1.]],[[1.]],[[1.]],[[1.]],[[1.]],[[nan]],[[1.]],[[1.]],[[2.67248649]],[[1.05502625]],[[1.14163347]],[[0.91358616]],[[1.60386302]],[[1.56253883]],[[1.73452301]],[[0.94829742]],[[0.9123128]],[[1.25821106]],[[0.94809482]]
56,1.0012938733662349,[[0.9987038]],[[1.93855973]],[[nan]],[[nan]],[[nan]],[[nan]],[[nan]],[[nan]],[[1.22801197]],[[1.21932928]],[[1.94107576]],[[1.22960579]],[[1.0058196]],[[1.85909091]],[[1.84833457]],[[1.7979798]],[[1.57861746]],[[0.98047046]],[[1.02661597]],[[nan]],[[2.99132948]],[[0.86538462]],[[1.02877698]],[[1.76134777]],[[2.5]],[[nan]],[[nan]],[[nan]],[[0.73159915]],[[nan]],[[1.17829433]],[[nan]],[[nan]],[[0.62089698]],[[1.14854311]],[[1.21932928]],[[2.19607152]],[[0.55523651]],[[2.67773125]],[[1.80105118]],[[1.13990725]],[[3.955269]],[[0.92730166]],[[0.90310651]],[[0.89946754]],[[0.61787469]],[[0.9999316]],[[0.99899786]],[[1.00084009]],[[1.06298994]],[[1.11842619]],[[0.90394634]],[[1.28950902]],[[1.1592905]],[[0.99435061]],[[1.00584117]],[[2.18981936]],[[2.20248131]],[[1.03471276]],[[0.96687443]],[[1.95654202]],[[1.89133164]],[[1.15690031]],[[1.14645974]],[[1.11533219]],[[1.21245692]],[[0.229422]],[[-0.96592071]],[[0.84318342]],[[7.22428946]],[[2.74696124]],[[1.]],[[1.]],[[1.]],[[1.]],[[1.]],[[1.]],[[nan]],[[1.]],[[1.]],[[3.55056627]],[[0.36435587]],[[1.28054317]],[[0.74235883]],[[inf]],[[1.44563639]],[[1.5169767]],[[0.88743976]],[[0.90600351]],[[0.97235292]],[[0.61020144]]
57,0.9625595046260579,[[1.03866588]],[[0.87612391]],[[nan]],[[nan]],[[nan]],[[nan]],[[nan]],[[nan]],[[0.93806078]],[[0.93310332]],[[0.8435089]],[[0.90314007]],[[1.02715812]],[[0.94117647]],[[0.91629318]],[[0.81347795]],[[0.93397544]],[[1.04965139]],[[1.03007519]],[[nan]],[[0.725]],[[1.0298905]],[[1.03971119]],[[0.97222222]],[[1.]],[[nan]],[[nan]],[[nan]],[[1.08556028]],[[0.16307539]],[[0.68815484]],[[nan]],[[nan]],[[1.57751089]],[[0.9749818]],[[0.93310332]],[[0.85477081]],[[1.09164021]],[[0.79759097]],[[0.91605476]],[[0.97118485]],[[0.78301592]],[[1.03977273]],[[0.99116813]],[[1.01046512]],[[0.52213115]],[[0.98396045]],[[0.98430814]],[[0.98364924]],[[1.0572979]],[[1.00569205]],[[0.9950167]],[[0.93566663]],[[0.93068871]],[[1.14766985]],[[0.86701412]],[[0.91565981]],[[0.79582477]],[[1.11124415]],[[0.90045268]],[[0.92012846]],[[0.82824865]],[[0.63467619]],[[1.89395886]],[[0.930616]],[[0.77871178]],[[-1.24426591]],[[3.82288541]],[[5.6990899]],[[6.82863554]],[[6.11111678]],[[1.]],[[1.]],[[1.]],[[1.]],[[1.]],[[1.]],[[nan]],[[1.]],[[1.]],[[2.13904216]],[[0.6199463]],[[1.04597193]],[[0.93892805]],[[1.62723086]],[[inf]],[[inf]],[[0.96648527]],[[1.06362801]],[[1.02401816]],[[0.91029974]]
58,0.9746119773494724,[[1.02551639]],[[0.85494419]],[[nan]],[[nan]],[[nan]],[[nan]],[[nan]],[[nan]],[[0.93284202]],[[0.92859783]],[[0.83367198]],[[0.90963172]],[[1.01874358]],[[1.10714286]],[[1.08688532]],[[1.11538462]],[[0.91650624]],[[1.01755102]],[[1.02557252]],[[nan]],[[0.3983209]],[[1.09803922]],[[1.02201842]],[[1.12804608]],[[0.85714286]],[[nan]],[[nan]],[[nan]],[[2.69717124]],[[nan]],[[3.11415779]],[[nan]],[[nan]],[[0.86609011]],[[0.71432495]],[[0.92859783]],[[0.82521056]],[[1.12527927]],[[0.76629652]],[[0.88867561]],[[0.9651543]],[[0.73334017]],[[0.99853654]],[[0.9982017]],[[1.00121418]],[[0.3627451]],[[0.94894143]],[[0.95013485]],[[0.94788111]],[[0.94949669]],[[0.84635984]],[[1.1960339]],[[0.85423236]],[[1.01537178]],[[1.96603543]],[[0.58787294]],[[1.15701514]],[[0.63271134]],[[1.58160949]],[[0.681735]],[[1.06625837]],[[0.70004404]],[[1.04200761]],[[3.57131842]],[[1.51295353]],[[1.31415775]],[[-3.29416213]],[[4.42647571]],[[1.85581951]],[[6.91003175]],[[12.50939243]],[[1.]],[[1.]],[[1.]],[[1.]],[[1.]],[[1.]],[[1.]],[[1.]],[[1.]],[[2.00306379]],[[1.1683786]],[[1.044584]],[[1.04218853]],[[1.20187382]],[[1.31901939]],[[1.59431854]],[[0.96201599]],[[0.97263724]],[[1.0360705]],[[0.8677916]]
59,0.959984021241757,[[1.0412488]],[[0.84220433]],[[nan]],[[nan]],[[nan]],[[nan]],[[nan]],[[nan]],[[1.16030488]],[[1.1546418]],[[0.80884062]],[[1.1143397]],[[1.04751131]],[[0.77777778]],[[0.74250406]],[[0.75730994]],[[0.72585875]],[[1.05438931]],[[1.03011692]],[[nan]],[[inf]],[[1.05191257]],[[1.0139761]],[[0.81136292]],[[0.9375]],[[nan]],[[nan]],[[nan]],[[7.34562042]],[[nan]],[[10.01018714]],[[nan]],[[nan]],[[0.73381195]],[[0.54195832]],[[1.1546418]],[[0.8230455]],[[1.40288344]],[[0.95032789]],[[0.71282841]],[[0.9930577]],[[0.58668772]],[[1.10378141]],[[1.09379305]],[[1.15619711]],[[inf]],[[0.98302335]],[[0.98142348]],[[0.98458148]],[[0.91449527]],[[0.85361707]],[[1.17697734]],[[1.06661121]],[[1.25250864]],[[1.04847298]],[[0.95668304]],[[0.84249972]],[[0.80471511]],[[1.02456833]],[[0.98156089]],[[0.86108285]],[[0.84270403]],[[0.87353094]],[[0.62171114]],[[0.81846395]],[[0.79816375]],[[0.91783597]],[[0.95102848]],[[0.6145364]],[[0.10565444]],[[0.24201206]],[[1.]],[[1.]],[[1.]],[[1.]],[[1.]],[[1.]],[[1.]],[[1.]],[[1.]],[[1.72812642]],[[0.81638586]],[[1.03551787]],[[1.25317843]],[[1.4758519]],[[1.27533984]],[[1.60246599]],[[1.04880487]],[[1.06847159]],[[1.53328803]],[[1.26585962]]
60,0.9930640370781103,[[1.00673734]],[[0.92057777]],[[nan]],[[nan]],[[nan]],[[nan]],[[nan]],[[nan]],[[1.02661499]],[[1.02108811]],[[0.91441703]],[[1.01974453]],[[1.01402491]],[[0.97058824]],[[0.95713392]],[[0.88571429]],[[0.89678628]],[[1.01351351]],[[1.]],[[nan]],[[inf]],[[0.94607843]],[[0.99420849]],[[1.0469697]],[[1.25]],[[nan]],[[nan]],[[nan]],[[0.48548803]],[[nan]],[[1.07753664]],[[nan]],[[nan]],[[0.45055786]],[[1.2493888]],[[1.02108811]],[[0.91258172]],[[1.11890869]],[[0.93181997]],[[0.89382083]],[[0.99047825]],[[0.81569054]],[[1.24383818]],[[1.17939429]],[[1.0300198]],[[inf]],[[1.01114625]],[[1.01141627]],[[1.01084979]],[[0.9387633]],[[0.9422541]],[[1.05307421]],[[0.99125022]],[[1.04785968]],[[0.86388672]],[[1.20015195]],[[0.84811895]],[[0.99956827]],[[0.8696838]],[[1.17948839]],[[0.86521565]],[[1.00752319]],[[0.77803974]],[[1.36904681]],[[0.66369388]],[[1.08210706]],[[-5.25382561]],[[7.00369681]],[[0.03688617]],[[4.88429264]],[[2.71857479]],[[1.]],[[1.]],[[1.]],[[1.]],[[1.]],[[1.]],[[1.]],[[1.]],[[1.]],[[2.36082021]],[[0.58050832]],[[1.01432469]],[[0.98421608]],[[1.267161]],[[1.21749394]],[[1.41208048]],[[0.74802813]],[[1.00205471]],[[1.44596356]],[[0.89685838]]
61,0.9716491445916091,[[1.0288795]],[[2.13697999]],[[nan]],[[nan]],[[nan]],[[nan]],[[nan]],[[nan]],[[1.08169505]],[[1.07589343]],[[2.07699736]],[[1.05133308]],[[1.04147465]],[[1.91666667]],[[1.84033923]],[[2.]],[[1.9756011]],[[0.992891]],[[1.05752212]],[[nan]],[[0.]],[[0.87657987]],[[1.11158798]],[[2.15535159]],[[3.33333333]],[[nan]],[[nan]],[[nan]],[[0.28622524]],[[nan]],[[1.18107907]],[[nan]],[[nan]],[[0.24232082]],[[1.2576558]],[[1.07589343]],[[2.33749295]],[[0.46027461]],[[2.51490917]],[[2.17263905]],[[1.13642382]],[[5.0785059]],[[1.07747094]],[[1.05358193]],[[1.0735052]],[[0.88902439]],[[0.9549645]],[[0.95397545]],[[0.95594974]],[[1.09207441]],[[0.98301898]],[[1.01550318]],[[1.06592959]],[[1.08345484]],[[0.94652812]],[[1.07564097]],[[2.27374679]],[[2.42334624]],[[0.9716438]],[[1.03728194]],[[2.11778175]],[[2.18780783]],[[1.48209114]],[[0.93591927]],[[1.20253923]],[[1.37298951]],[[2.0852103]],[[1.98466409]],[[0.18341947]],[[1.71812875]],[[1.06175289]],[[1.]],[[1.]],[[1.]],[[1.]],[[1.]],[[1.]],[[1.]],[[1.]],[[1.]],[[2.50026608]],[[0.61261486]],[[1.27904833]],[[0.62152716]],[[inf]],[[1.47512188]],[[1.80238858]],[[0.9705016]],[[0.93132424]],[[1.00633847]],[[0.55765482]]
62,0.939239617693002,[[1.06460385]],[[0.9121605]],[[nan]],[[nan]],[[nan]],[[nan]],[[nan]],[[nan]],[[1.24614317]],[[1.24522754]],[[0.85681293]],[[1.17052383]],[[1.06912442]],[[0.76388889]],[[0.71449952]],[[0.7819991]],[[0.73197765]],[[1.06730769]],[[1.05550661]],[[nan]],[[nan]],[[1.05206269]],[[1.02464919]],[[0.82717582]],[[0.92857143]],[[nan]],[[nan]],[[nan]],[[3.04257665]],[[0.17905528]],[[1.81986971]],[[nan]],[[nan]],[[1.67197711]],[[0.72950244]],[[1.24522754]],[[0.89336161]],[[1.39395317]],[[1.1124477]],[[0.71742317]],[[1.015084]],[[0.6409578]],[[1.1855966]],[[1.22911555]],[[1.36506783]],[[0.95791001]],[[1.09345196]],[[1.08498625]],[[1.10217514]],[[0.97493963]],[[1.17484147]],[[0.89876067]],[[1.34489188]],[[1.17642512]],[[1.12714176]],[[0.87988201]],[[0.94833673]],[[0.83801821]],[[1.11757872]],[[0.89195675]],[[0.96928331]],[[0.86605941]],[[0.91933631]],[[0.46127756]],[[0.88481611]],[[0.64962387]],[[-1.51161916]],[[-0.35361386]],[[2.92085446]],[[0.24814842]],[[0.25084864]],[[1.]],[[1.]],[[1.]],[[1.]],[[1.]],[[1.]],[[nan]],[[1.]],[[1.]],[[1.33964907]],[[0.84292259]],[[1.04231622]],[[1.18613394]],[[0.77898684]],[[1.88424471]],[[1.86335698]],[[1.02039314]],[[1.0453068]],[[1.77053115]],[[1.19351048]]
63,0.9638302500728245,[[1.03688253]],[[0.97315249]],[[nan]],[[nan]],[[nan]],[[nan]],[[nan]],[[nan]],[[1.13335823]],[[1.13237311]],[[0.93860991]],[[1.09312358]],[[1.03565155]],[[0.90625]],[[0.8754186]],[[0.89166667]],[[0.85846848]],[[1.04560669]],[[1.04092664]],[[nan]],[[0.82481971]],[[1.02777778]],[[1.01858736]],[[0.67511582]],[[1.]],[[nan]],[[nan]],[[nan]],[[0.21163561]],[[0.27491919]],[[0.23070564]],[[nan]],[[nan]],[[0.91739333]],[[1.55828005]],[[1.13237311]],[[0.89222526]],[[1.26832314]],[[1.01138313]],[[0.78932808]],[[1.00116486]],[[0.70379596]],[[1.00401665]],[[1.0016835]],[[1.00571429]],[[nan]],[[1.00022763]],[[0.99658607]],[[1.00371877]],[[0.81150794]],[[0.86383768]],[[1.11915136]],[[1.0491494]],[[1.19984018]],[[1.40194861]],[[0.73514887]],[[1.05602328]],[[0.76514588]],[[1.22135857]],[[0.84321042]],[[1.05418853]],[[0.87728234]],[[0.53305672]],[[1.19655079]],[[0.45945856]],[[0.73243884]],[[0.7574533]],[[0.84390044]],[[0.21964035]],[[0.72841655]],[[1.18977124]],[[1.]],[[1.]],[[1.]],[[1.]],[[1.]],[[1.]],[[nan]],[[1.]],[[1.]],[[0.95319039]],[[0.63281469]],[[0.99835193]],[[0.83615257]],[[inf]],[[0.87871342]],[[0.96018544]],[[1.03380583]],[[1.11372053]],[[1.29134487]],[[1.19854302]]
64,0.9648340733457451,[[1.03650866]],[[1.06302571]],[[nan]],[[nan]],[[nan]],[[nan]],[[nan]],[[nan]],[[1.20793729]],[[1.20440038]],[[1.02558298]],[[1.16539004]],[[1.03629032]],[[1.28205128]],[[1.23715454]],[[1.31372549]],[[0.88022836]],[[1.02489627]],[[1.04313725]],[[nan]],[[2.61052632]],[[1.04556956]],[[1.04307116]],[[1.28709677]],[[1.]],[[nan]],[[nan]],[[nan]],[[1.06168036]],[[nan]],[[1.46900726]],[[nan]],[[nan]],[[0.72274255]],[[0.97756885]],[[1.20440038]],[[1.0132121]],[[1.18871965]],[[1.22028962]],[[0.84150383]],[[1.02651566]],[[0.85263938]],[[1.03725304]],[[1.03802275]],[[1.01465311]],[[0.53565062]],[[1.00280683]],[[1.0028086]],[[1.00279714]],[[0.96747574]],[[1.00377821]],[[0.99642532]],[[1.20678541]],[[1.20213344]],[[0.95447273]],[[1.03763479]],[[0.98941109]],[[1.03178296]],[[0.97799494]],[[1.01906869]],[[1.04756602]],[[1.06952948]],[[1.04313539]],[[0.37185753]],[[0.81898737]],[[0.60261877]],[[-1.24284873]],[[-0.22695143]],[[2.21820572]],[[0.04639772]],[[0.08877106]],[[1.]],[[1.]],[[1.]],[[1.]],[[1.]],[[1.]],[[nan]],[[1.]],[[1.]],[[1.09690399]],[[0.52648583]],[[1.08790959]],[[1.05908895]],[[1.0822419]],[[1.07835906]],[[1.28072869]],[[0.96102913]],[[1.03006503]],[[1.4586617]],[[0.93614713]]
65,0.9579048799859377,[[1.04422712]],[[1.77168518]],[[nan]],[[nan]],[[nan]],[[nan]],[[nan]],[[nan]],[[1.25451031]],[[1.24737469]],[[1.6966478]],[[1.2013772]],[[1.04980843]],[[1.47619048]],[[1.40615224]],[[1.46428571]],[[1.41227401]],[[1.0392]],[[1.06207928]],[[inf]],[[2.42633136]],[[0.87317636]],[[1.08844765]],[[1.30442658]],[[2.75]],[[nan]],[[nan]],[[nan]],[[6.22697909]],[[nan]],[[9.92726199]],[[nan]],[[nan]],[[0.62732483]],[[0.55443639]],[[1.24737469]],[[2.16819576]],[[0.57529201]],[[2.70615364]],[[1.73824932]],[[1.1365533]],[[3.76877721]],[[0.95865899]],[[0.91773126]],[[0.94925773]],[[inf]],[[0.9982657]],[[0.99802668]],[[0.99846133]],[[1.09354184]],[[1.13085596]],[[0.89232935]],[[1.32677409]],[[1.17627633]],[[0.89170375]],[[1.14782494]],[[2.04282597]],[[2.32266287]],[[0.99478551]],[[1.00686494]],[[1.74979415]],[[1.76218324]],[[2.76860573]],[[2.95191468]],[[2.73737041]],[[2.51668974]],[[0.00885639]],[[2.74113935]],[[1.65594757]],[[89.35085331]],[[20.68882121]],[[1.]],[[1.]],[[1.]],[[1.]],[[1.]],[[1.]],[[nan]],[[1.]],[[1.]],[[3.28970696]],[[0.34927775]],[[1.21162073]],[[0.79211594]],[[inf]],[[nan]],[[nan]],[[0.98599214]],[[0.93078029]],[[0.56693751]],[[0.77284765]]
66,0.9830003016412718,[[1.01719779]],[[1.32073904]],[[nan]],[[nan]],[[nan]],[[nan]],[[nan]],[[nan]],[[1.11247492]],[[1.10438477]],[[1.29840948]],[[1.09366658]],[[1.01515152]],[[1.11111111]],[[1.09452736]],[[1.11111111]],[[1.18720885]],[[1.01388293]],[[1.02564103]],[[inf]],[[1.12181669]],[[0.87276786]],[[1.05244755]],[[1.24754991]],[[1.71428571]],[[nan]],[[nan]],[[nan]],[[2.95616173]],[[3.93631141]],[[5.63382683]],[[nan]],[[nan]],[[0.52823122]],[[0.7519495]],[[1.10438477]],[[1.4082272]],[[0.78424147]],[[1.55522131]],[[1.27512866]],[[1.05623591]],[[1.79567964]],[[1.06452319]],[[1.02602638]],[[1.03149406]],[[inf]],[[1.01666135]],[[1.01563919]],[[1.01756981]],[[1.05554607]],[[1.25311468]],[[0.82540024]],[[1.23609545]],[[1.00322131]],[[0.72761005]],[[1.44229777]],[[1.20116124]],[[1.69111314]],[[0.85027144]],[[1.1806952]],[[1.21013435]],[[1.42601707]],[[1.71400375]],[[0.74326533]],[[1.95843649]],[[0.94734925]],[[-2.37759358]],[[-0.35537856]],[[9.30243297]],[[4.22485071]],[[1.1092366]],[[1.]],[[1.]],[[1.]],[[1.]],[[1.]],[[1.]],[[1.]],[[1.]],[[1.]],[[3.86593097]],[[0.59965789]],[[1.14855566]],[[0.80796552]],[[1.24853663]],[[1.1101285]],[[1.30372505]],[[0.83767461]],[[0.96846753]],[[1.17945437]],[[0.80806591]]
67,0.9454324046608558,[[1.05725633]],[[0.77702452]],[[nan]],[[nan]],[[nan]],[[nan]],[[nan]],[[nan]],[[0.87583211]],[[0.87119646]],[[0.7349443]],[[0.82840092]],[[1.04932302]],[[0.81818182]],[[0.77972416]],[[0.86746988]],[[0.88718636]],[[1.06362436]],[[1.04367135]],[[0.375]],[[0.62946429]],[[1.1127451]],[[1.04659498]],[[0.93693694]],[[0.875]],[[nan]],[[nan]],[[nan]],[[0.57462228]],[[nan]],[[0.79030083]],[[nan]],[[nan]],[[0.72708725]],[[1.20066539]],[[0.87119646]],[[0.7384938]],[[1.17969154]],[[0.64337553]],[[0.8476807]],[[0.94644252]],[[0.62600581]],[[1.14375]],[[1.08414019]],[[1.05029461]],[[inf]],[[0.97141645]],[[0.97278767]],[[0.97008686]],[[0.84736952]],[[0.83369981]],[[1.24759628]],[[0.79539502]],[[0.97300861]],[[1.29585756]],[[0.80998366]],[[0.84067066]],[[0.66463562]],[[1.13348896]],[[0.89306646]],[[0.82516761]],[[0.7324438]],[[0.76890072]],[[0.77878898]],[[0.76464934]],[[0.89099072]],[[11.74914358]],[[5.13340646]],[[0.39298871]],[[0.77402178]],[[0.73036804]],[[1.]],[[1.]],[[1.]],[[1.]],[[1.]],[[1.]],[[1.]],[[1.]],[[1.]],[[1.63026755]],[[1.3129455]],[[1.05918481]],[[1.06826414]],[[1.83649357]],[[1.54790664]],[[1.44815224]],[[1.02222996]],[[1.06011581]],[[1.35676894]],[[0.786642]]
68,0.9483217212380972,[[1.05420688]],[[0.89487283]],[[nan]],[[nan]],[[nan]],[[nan]],[[nan]],[[nan]],[[1.13330525]],[[1.12633426]],[[0.84885884]],[[1.07503117]],[[1.05882353]],[[0.93073593]],[[0.87902838]],[[1.03133903]],[[0.78961378]],[[1.04319478]],[[1.05093633]],[[nan]],[[2.18600683]],[[1.07655502]],[[1.06329462]],[[1.15175392]],[[1.]],[[nan]],[[nan]],[[nan]],[[3.85597156]],[[nan]],[[12.58213083]],[[nan]],[[nan]],[[0.30646493]],[[0.74089193]],[[1.12633426]],[[0.84902108]],[[1.32662683]],[[0.95628165]],[[0.7537921]],[[0.99441666]],[[0.63998531]],[[0.98045299]],[[0.9751205]],[[1.06350902]],[[inf]],[[0.95382665]],[[0.95165239]],[[0.9559873]],[[1.10838697]],[[1.01508259]],[[0.98537828]],[[1.13404601]],[[1.11732894]],[[0.87151908]],[[1.17954801]],[[0.79258777]],[[0.92207252]],[[0.89041001]],[[1.14417983]],[[0.8490202]],[[0.96243219]],[[1.06870953]],[[2.55540616]],[[1.10874259]],[[1.53807247]],[[-0.54205818]],[[-3.31602947]],[[0.3357102]],[[10.97150881]],[[7.66133698]],[[1.]],[[1.]],[[1.]],[[1.]],[[1.]],[[1.]],[[nan]],[[1.]],[[1.]],[[2.28275626]],[[1.22152757]],[[1.14597756]],[[1.03214197]],[[1.60275557]],[[1.51388186]],[[2.19872026]],[[1.03525872]],[[1.01330302]],[[1.42497106]],[[0.89962833]]
69,0.9840131176950548,[[1.01618308]],[[1.27834152]],[[nan]],[[nan]],[[nan]],[[nan]],[[nan]],[[nan]],[[1.01922981]],[[1.01336489]],[[1.25798347]],[[1.00299821]],[[1.01937984]],[[1.28571429]],[[1.26127105]],[[1.34615385]],[[1.2542333]],[[1.01537483]],[[1.01834533]],[[nan]],[[1.41361257]],[[0.92790698]],[[1.05494505]],[[1.18594771]],[[1.66666667]],[[nan]],[[nan]],[[nan]],[[0.59096056]],[[nan]],[[1.28889753]],[[nan]],[[nan]],[[0.45849427]],[[1.21076154]],[[1.01336489]],[[1.35610413]],[[0.74726176]],[[1.37422849]],[[1.3382326]],[[1.04104976]],[[1.81478252]],[[0.96075498]],[[0.94142031]],[[1.11437908]],[[0.25]],[[1.03229312]],[[1.03186033]],[[1.03274633]],[[1.16762387]],[[1.04335674]],[[0.95835242]],[[1.03495651]],[[0.99190228]],[[1.12472771]],[[0.91666647]],[[1.4374724]],[[1.29795529]],[[1.08632147]],[[0.93639842]],[[1.32704624]],[[1.23215024]],[[1.24339061]],[[0.67439906]],[[1.62169579]],[[1.00800333]],[[-0.22780649]],[[0.54655967]],[[2.97920025]],[[3.4069408]],[[1.16029334]],[[1.]],[[1.]],[[1.]],[[1.]],[[1.]],[[1.]],[[1.]],[[1.]],[[1.]],[[1.867016]],[[0.92954079]],[[1.13831626]],[[0.89731713]],[[1.36580268]],[[1.63651015]],[[1.67709915]],[[1.07665242]],[[0.95765105]],[[1.41515621]],[[0.75558285]]
70,0.9330551975630558,[[1.0717091]],[[0.74056817]],[[nan]],[[nan]],[[nan]],[[nan]],[[nan]],[[nan]],[[1.05517558]],[[1.04880658]],[[0.69101602]],[[0.98457256]],[[1.05765826]],[[0.86944444]],[[0.82201337]],[[0.83963415]],[[0.70186948]],[[1.06751055]],[[1.05122324]],[[nan]],[[1.16129032]],[[1.05617978]],[[1.11111111]],[[1.01371679]],[[1.09090909]],[[nan]],[[nan]],[[nan]],[[0.66910798]],[[nan]],[[1.10711838]],[[nan]],[[nan]],[[0.60437126]],[[1.18236184]],[[1.04880658]],[[0.69654073]],[[1.50573713]],[[0.73053605]],[[0.66415394]],[[0.96255655]],[[0.46261056]],[[1.18256396]],[[1.11259311]],[[1.2806243]],[[0.40430108]],[[1.01735347]],[[1.01616001]],[[1.0184285]],[[1.07008117]],[[1.14587962]],[[0.87581607]],[[1.12266269]],[[0.98146845]],[[1.02733003]],[[0.97984914]],[[0.70599277]],[[0.6894858]],[[1.06014601]],[[0.95497854]],[[0.75939533]],[[0.72074726]],[[0.63165758]],[[1.88781684]],[[0.93377139]],[[0.95662329]],[[2.60516293]],[[1.6584161]],[[0.9607484]],[[1.49801597]],[[2.60276221]],[[1.]],[[1.]],[[1.]],[[1.]],[[1.]],[[1.]],[[1.]],[[1.]],[[1.]],[[1.6013257]],[[1.20562759]],[[1.10087453]],[[1.20662562]],[[1.99636865]],[[1.22797178]],[[1.36886277]],[[1.0390727]],[[1.13305502]],[[1.53753137]],[[1.2043049]]
71,0.9737076345465112,[[1.02745291]],[[1.38699791]],[[nan]],[[nan]],[[nan]],[[nan]],[[nan]],[[nan]],[[1.03473561]],[[1.02880795]],[[1.34993834]],[[1.00708834]],[[1.02596154]],[[1.17410714]],[[1.14429589]],[[1.32407407]],[[1.34046403]],[[1.02008032]],[[1.04360902]],[[nan]],[[0.82865169]],[[0.9375]],[[1.04710145]],[[1.5820587]],[[1.5]],[[nan]],[[nan]],[[nan]],[[nan]],[[0.34009842]],[[2.69505858]],[[nan]],[[nan]],[[nan]],[[nan]],[[1.02880795]],[[1.5610328]],[[0.65905098]],[[1.60601848]],[[1.51737341]],[[1.06382727]],[[2.36865183]],[[1.21402234]],[[1.1590125]],[[1.02506868]],[[inf]],[[0.98500956]],[[0.98547739]],[[0.98454537]],[[1.02205505]],[[1.00771797]],[[0.99302304]],[[1.03262347]],[[1.02510659]],[[1.11329322]],[[0.91156522]],[[1.64705705]],[[1.49037247]],[[1.07404847]],[[0.93844104]],[[1.43666085]],[[1.34288273]],[[1.80932575]],[[3.04687779]],[[2.59887901]],[[2.55829739]],[[-5.04645516]],[[13.90470333]],[[1.071636]],[[538.70963022]],[[26.30893074]],[[1.]],[[1.]],[[1.]],[[1.]],[[1.]],[[1.]],[[1.]],[[1.]],[[1.]],[[1.9069735]],[[0.96224661]],[[1.16842371]],[[0.8164634]],[[1.98921028]],[[1.21957676]],[[1.53281833]],[[0.95282095]],[[0.97145746]],[[0.92193786]],[[0.64938732]]
72,1.0396676048080997,[[0.96177582]],[[0.8278202]],[[nan]],[[nan]],[[nan]],[[nan]],[[nan]],[[nan]],[[1.00979852]],[[1.00743353]],[[0.86072053]],[[1.04993123]],[[0.95728643]],[[0.66666667]],[[0.69641775]],[[0.71146245]],[[0.81979022]],[[0.98316162]],[[0.94811321]],[[nan]],[[inf]],[[0.93393334]],[[0.96995708]],[[0.84468034]],[[1.33333333]],[[nan]],[[nan]],[[nan]],[[1.86971764]],[[nan]],[[3.52252421]],[[nan]],[[nan]],[[0.5307881]],[[0.79503093]],[[1.00743353]],[[0.82108668]],[[1.22695047]],[[0.82719116]],[[0.81503101]],[[0.97431676]],[[0.66921055]],[[0.87929573]],[[0.86458937]],[[0.90827252]],[[0.67762657]],[[0.91105828]],[[0.90995098]],[[0.91243878]],[[1.03854749]],[[0.85982017]],[[1.15970348]],[[0.93192876]],[[1.0822963]],[[1.08675325]],[[0.91520066]],[[0.85577199]],[[0.78533095]],[[1.0723962]],[[0.92905629]],[[0.8594924]],[[0.80000205]],[[1.00880918]],[[1.82793141]],[[1.0480625]],[[1.22738199]],[[-3.04665824]],[[7.89814735]],[[0.50397627]],[[3.16068639]],[[4.08442736]],[[1.]],[[1.]],[[1.]],[[1.]],[[1.]],[[1.]],[[nan]],[[1.]],[[1.]],[[1.57039935]],[[1.11939239]],[[1.05180767]],[[1.14155881]],[[1.62297843]],[[1.67773231]],[[2.29085242]],[[0.98065478]],[[1.00768439]],[[1.54968313]],[[1.32888356]]
73,1.04193216246588,[[0.95978236]],[[0.92619304]],[[nan]],[[nan]],[[nan]],[[nan]],[[nan]],[[nan]],[[0.87303666]],[[0.8693413]],[[0.9650032]],[[0.9096194]],[[0.95964126]],[[0.85714286]],[[0.89319092]],[[0.89010989]],[[1.06088626]],[[0.96728972]],[[0.96003548]],[[nan]],[[0.]],[[0.92682927]],[[0.95353925]],[[0.8998295]],[[1.25]],[[nan]],[[nan]],[[nan]],[[0.9726331]],[[nan]],[[1.07754612]],[[nan]],[[nan]],[[0.90263834]],[[1.01335718]],[[0.8693413]],[[0.931741]],[[0.93302932]],[[0.81000155]],[[1.07177784]],[[0.97017059]],[[0.99861977]],[[1.07251186]],[[1.01142578]],[[1.00936394]],[[1.6031746]],[[1.01214682]],[[1.01172911]],[[1.01256958]],[[0.91290096]],[[1.00036431]],[[0.99973061]],[[0.86956028]],[[0.86928565]],[[0.99930175]],[[1.00108382]],[[0.93132602]],[[0.93211092]],[[1.00450496]],[[0.99447677]],[[0.92234952]],[[0.91772292]],[[0.95893794]],[[0.68440942]],[[0.92273549]],[[0.94907947]],[[1.20806723]],[[1.63482664]],[[0.45461671]],[[0.74016711]],[[0.6025505]],[[1.]],[[1.]],[[1.]],[[1.]],[[1.]],[[1.]],[[1.]],[[1.]],[[1.]],[[1.8666978]],[[0.91634191]],[[1.05384728]],[[0.92651409]],[[1.66633917]],[[inf]],[[inf]],[[1.02392276]],[[1.00297113]],[[1.03596087]],[[1.03306661]]
74,0.9759042509508479,[[1.02461782]],[[1.44839403]],[[nan]],[[nan]],[[nan]],[[nan]],[[nan]],[[nan]],[[1.44723404]],[[1.43864308]],[[1.41359446]],[[1.41246248]],[[1.02278954]],[[1.33333333]],[[1.30365079]],[[1.34751773]],[[1.00081417]],[[1.00938967]],[[1.03530461]],[[nan]],[[inf]],[[0.93018657]],[[1.07368897]],[[1.37137472]],[[2.]],[[nan]],[[nan]],[[nan]],[[2.03502272]],[[nan]],[[5.23443112]],[[nan]],[[nan]],[[0.38877468]],[[0.81773508]],[[1.43864308]],[[1.44537343]],[[0.99533967]],[[2.07938837]],[[1.0046903]],[[1.11188396]],[[1.45214705]],[[0.97116196]],[[0.92969452]],[[0.84139265]],[[inf]],[[0.98424038]],[[0.98461732]],[[0.98388015]],[[1.04475452]],[[0.97028005]],[[1.02884288]],[[1.41678905]],[[1.4590973]],[[0.99918172]],[[1.00105002]],[[1.44476358]],[[1.44612488]],[[0.99568371]],[[1.00525217]],[[1.44124533]],[[1.44817477]],[[1.05010005]],[[1.2816238]],[[0.99041874]],[[1.20684573]],[[1.70883409]],[[1.56749313]],[[0.37040639]],[[2.99893677]],[[2.07256545]],[[1.]],[[1.]],[[1.]],[[1.]],[[1.]],[[1.]],[[1.]],[[1.]],[[1.]],[[3.27486621]],[[0.69198846]],[[1.16176093]],[[0.93618561]],[[inf]],[[1.35877896]],[[1.49330892]],[[0.88966745]],[[1.01980277]],[[1.13749016]],[[1.01004585]]
75,1.03176042069547,[[0.96935391]],[[0.80564332]],[[nan]],[[nan]],[[nan]],[[nan]],[[nan]],[[nan]],[[0.8289742]],[[0.82478124]],[[0.83111376]],[[0.85518232]],[[0.9763486]],[[0.92857143]],[[0.95091252]],[[0.92857143]],[[0.97188647]],[[0.96975089]],[[0.96232596]],[[nan]],[[0.]],[[0.97647046]],[[0.92687361]],[[0.79543269]],[[1.16666667]],[[nan]],[[nan]],[[nan]],[[0.40531228]],[[nan]],[[0.65182018]],[[nan]],[[nan]],[[0.62180935]],[[1.37217731]],[[0.82478124]],[[0.7878378]],[[1.04688622]],[[0.64979812]],[[0.95524819]],[[0.94147589]],[[0.75257634]],[[0.89509729]],[[0.85897436]],[[0.96298032]],[[0.40601504]],[[1.03043261]],[[1.02931874]],[[1.03155325]],[[0.91954023]],[[0.86882132]],[[1.13776122]],[[0.76870318]],[[0.87968371]],[[1.04193609]],[[0.95536378]],[[0.80418483]],[[0.77005436]],[[1.01585923]],[[0.98323255]],[[0.79934712]],[[0.78641108]],[[0.80460287]],[[0.53181638]],[[0.71947742]],[[0.75531512]],[[0.95148504]],[[1.67363192]],[[0.48837228]],[[0.13168577]],[[0.23245699]],[[1.]],[[1.]],[[1.]],[[1.]],[[1.]],[[1.]],[[1.]],[[1.]],[[1.]],[[1.46995383]],[[1.12420175]],[[1.04492023]],[[1.00217181]],[[1.93347997]],[[1.76422236]],[[1.86084796]],[[1.03986144]],[[1.06640825]],[[1.09975981]],[[0.91472633]]
76,1.0223078586070211,[[0.97814691]],[[0.87956682]],[[nan]],[[nan]],[[nan]],[[nan]],[[nan]],[[nan]],[[0.93289565]],[[0.92869687]],[[0.89921734]],[[0.95373711]],[[0.97807933]],[[0.80833333]],[[0.82638695]],[[0.8]],[[0.94315154]],[[0.98514061]],[[0.97295258]],[[nan]],[[inf]],[[0.97690519]],[[0.98659004]],[[0.88514628]],[[0.8]],[[nan]],[[nan]],[[nan]],[[1.19787665]],[[nan]],[[2.05351651]],[[nan]],[[nan]],[[0.58332821]],[[0.93547685]],[[0.92869687]],[[0.86292047]],[[1.07619422]],[[0.80141643]],[[0.92956228]],[[0.96984236]],[[0.80211512]],[[0.94517375]],[[0.90531818]],[[0.91762613]],[[inf]],[[0.97126053]],[[0.97161496]],[[0.97094193]],[[1.10469508]],[[1.04102081]],[[0.96849174]],[[0.94716926]],[[0.91402103]],[[0.95630362]],[[1.05584272]],[[0.84350594]],[[0.886149]],[[0.96831149]],[[1.03623373]],[[0.86242817]],[[0.89192641]],[[0.77924612]],[[0.75020024]],[[0.84222182]],[[0.71293316]],[[0.71378439]],[[0.59974505]],[[5.86400397]],[[0.68947576]],[[0.82443305]],[[1.]],[[1.]],[[1.]],[[1.]],[[1.]],[[1.]],[[1.]],[[1.]],[[1.]],[[1.06683488]],[[1.3795144]],[[1.04185964]],[[1.01219939]],[[2.30532209]],[[1.36511372]],[[1.918782]],[[0.98819653]],[[1.04286735]],[[0.87139849]],[[0.83935424]]
77,1.020808436354585,[[0.9806547]],[[0.98348429]],[[nan]],[[nan]],[[nan]],[[nan]],[[nan]],[[nan]],[[0.97858447]],[[0.97391298]],[[1.00288543]],[[0.99788903]],[[0.978125]],[[0.95119048]],[[0.97246291]],[[0.9754592]],[[1.00508027]],[[0.97539618]],[[0.97541695]],[[nan]],[[0.93203883]],[[0.95609756]],[[1.00932836]],[[0.86727431]],[[1.14285714]],[[nan]],[[nan]],[[nan]],[[2.48397283]],[[nan]],[[3.04554894]],[[nan]],[[nan]],[[0.81560828]],[[0.7733067]],[[0.97391298]],[[0.98993014]],[[0.9838119]],[[0.96411444]],[[1.01653742]],[[0.99528568]],[[1.00629283]],[[0.89751888]],[[0.86036811]],[[0.91466544]],[[0.21638655]],[[1.06235375]],[[1.06460597]],[[1.06007308]],[[1.05436666]],[[1.29435777]],[[0.81862272]],[[1.10707349]],[[0.88053148]],[[1.07402004]],[[0.93846307]],[[1.02588396]],[[0.95897963]],[[1.0996623]],[[0.92029643]],[[1.03565833]],[[0.94747272]],[[1.15925657]],[[2.37792408]],[[1.21299208]],[[1.41195942]],[[80.07970482]],[[2.46916847]],[[0.84596686]],[[9.4611921]],[[6.23314804]],[[1.]],[[1.]],[[1.]],[[1.]],[[1.]],[[1.]],[[1.]],[[1.]],[[1.]],[[2.35539077]],[[0.]],[[1.09666513]],[[1.00835857]],[[2.01720072]],[[2.99679706]],[[3.57581929]],[[0.96188678]],[[0.98909529]],[[1.05505489]],[[0.72967858]]
78,0.9716596661050695,[[1.02922307]],[[1.03816656]],[[nan]],[[nan]],[[nan]],[[nan]],[[nan]],[[nan]],[[1.09471288]],[[1.08894902]],[[1.00869592]],[[1.06363138]],[[1.03198763]],[[0.94444444]],[[0.91505969]],[[1.05833333]],[[0.94832495]],[[1.03379399]],[[1.02977103]],[[nan]],[[inf]],[[0.98122066]],[[1.03824837]],[[0.99368836]],[[1.4]],[[nan]],[[nan]],[[nan]],[[1.15471934]],[[nan]],[[1.73989588]],[[nan]],[[nan]],[[0.66365634]],[[0.95969715]],[[1.08894902]],[[1.01290675]],[[1.07513865]],[[1.10301942]],[[0.93015844]],[[1.01345788]],[[0.94222101]],[[0.88184497]],[[0.87593576]],[[0.95008064]],[[0.20357143]],[[1.0047919]],[[1.00305516]],[[1.00636078]],[[0.94704987]],[[0.95639198]],[[1.03620007]],[[1.06478481]],[[1.10836691]],[[1.07597311]],[[0.93021683]],[[1.05029114]],[[0.97689681]],[[1.05554417]],[[0.95002818]],[[1.05235575]],[[0.99865548]],[[0.80967917]],[[3.50924086]],[[0.83673791]],[[1.14322031]],[[1.13738192]],[[3.11358189]],[[0.36426626]],[[6.5791556]],[[11.8112583]],[[1.]],[[1.]],[[1.]],[[1.]],[[1.]],[[1.]],[[1.]],[[1.]],[[1.]],[[2.5976941]],[[1.2694306]],[[1.11503037]],[[1.07738972]],[[1.66674486]],[[1.21204054]],[[1.52113258]],[[0.9695914]],[[1.05725093]],[[1.07940109]],[[1.076387]]
79,1.0267249043743607,[[0.97372011]],[[1.30591067]],[[nan]],[[nan]],[[nan]],[[nan]],[[nan]],[[nan]],[[0.92936608]],[[0.92382003]],[[1.34115609]],[[0.95444888]],[[0.97352746]],[[1.39285714]],[[1.43051405]],[[1.39814815]],[[1.40516205]],[[0.95699899]],[[0.98614248]],[[nan]],[[0.7322695]],[[0.92117117]],[[1.00559701]],[[1.2141301]],[[1.4]],[[nan]],[[nan]],[[nan]],[[0.60610637]],[[nan]],[[0.95577453]],[[nan]],[[nan]],[[0.63415205]],[[1.18149464]],[[0.92382003]],[[1.47695743]],[[0.62548919]],[[1.36444705]],[[1.59874902]],[[1.04284332]],[[2.36128649]],[[0.95800089]],[[0.90817802]],[[0.86328791]],[[inf]],[[0.9478288]],[[0.94628754]],[[0.94933422]],[[1.1643588]],[[0.95218555]],[[1.04527202]],[[0.90054729]],[[0.94357078]],[[0.7628329]],[[1.57827907]],[[1.28987789]],[[1.8554375]],[[0.82901308]],[[1.30111119]],[[1.20862988]],[[1.51417686]],[[1.18551912]],[[1.58270322]],[[1.13182816]],[[1.64652885]],[[-11.35633686]],[[13.63953899]],[[0.20503969]],[[15.67605296]],[[3.82896302]],[[1.]],[[1.]],[[1.]],[[1.]],[[1.]],[[1.]],[[1.]],[[1.]],[[1.]],[[7.37007548]],[[0.48895901]],[[1.17399531]],[[0.83216434]],[[inf]],[[inf]],[[inf]],[[0.8681324]],[[0.96822241]],[[1.64239774]],[[0.89920049]]
80,0.9908323664601123,[[1.008677]],[[1.16407963]],[[nan]],[[nan]],[[nan]],[[nan]],[[nan]],[[nan]],[[1.03454968]],[[1.02910289]],[[1.15406592]],[[1.02565056]],[[1.00719531]],[[1.06666667]],[[1.05904762]],[[1.02344913]],[[1.12524872]],[[1.]],[[1.0050821]],[[nan]],[[1.72222222]],[[0.88706927]],[[1.06857893]],[[1.43839794]],[[2.66666667]],[[nan]],[[nan]],[[nan]],[[0.87114608]],[[0.1614818]],[[0.64564598]],[[nan]],[[nan]],[[1.34926077]],[[1.05090575]],[[1.02910289]],[[1.16619133]],[[0.88244967]],[[1.20012833]],[[1.13327135]],[[1.02445372]],[[1.32161412]],[[1.11333333]],[[1.05974893]],[[1.03944773]],[[inf]],[[0.9839982]],[[0.97722637]],[[0.99006513]],[[0.93664005]],[[0.93602607]],[[1.05364602]],[[0.99601726]],[[1.0567523]],[[1.2860218]],[[0.81267123]],[[1.32236583]],[[1.05124731]],[[1.18964286]],[[0.86702518]],[[1.23296221]],[[1.05264248]],[[0.99234208]],[[1.21936078]],[[0.89499265]],[[1.06259433]],[[1.7388572]],[[1.27819165]],[[0.15087294]],[[1.60085708]],[[1.52918166]],[[1.]],[[1.]],[[1.]],[[1.]],[[1.]],[[1.]],[[1.]],[[1.]],[[1.]],[[1.26971911]],[[0.86864681]],[[1.10857582]],[[0.89084988]],[[1.25593623]],[[1.31603658]],[[1.30148177]],[[1.04948957]],[[1.00964942]],[[1.0315531]],[[0.77202481]]
81,0.9598776678820429,[[1.0417174]],[[0.75991729]],[[nan]],[[nan]],[[nan]],[[nan]],[[nan]],[[nan]],[[0.96143667]],[[0.96115568]],[[0.72948502]],[[0.92293432]],[[1.0372093]],[[0.78571429]],[[0.75752723]],[[0.70175439]],[[0.79040742]],[[1.05366255]],[[1.03153153]],[[nan]],[[nan]],[[1.05208333]],[[1.02966102]],[[0.71469907]],[[0.8]],[[nan]],[[nan]],[[nan]],[[2.00829078]],[[nan]],[[2.62792289]],[[nan]],[[nan]],[[0.7642103]],[[0.76309301]],[[0.96115568]],[[0.73043382]],[[1.31590683]],[[0.702053]],[[0.75996709]],[[0.94972478]],[[0.55512136]],[[1.01613791]],[[1.02809725]],[[1.06955086]],[[1.06884058]],[[0.94839604]],[[0.94695633]],[[0.94985743]],[[0.97943816]],[[0.91106761]],[[1.07049916]],[[0.91727603]],[[0.99429613]],[[0.94930004]],[[1.07209333]],[[0.71163342]],[[0.7561301]],[[0.92530813]],[[1.10158589]],[[0.73378388]],[[0.8006151]],[[1.06959504]],[[0.58021605]],[[1.00306715]],[[0.9123173]],[[0.61837426]],[[1.23485579]],[[1.18698473]],[[0.53968455]],[[0.39640419]],[[1.]],[[1.]],[[1.]],[[1.]],[[1.]],[[1.]],[[1.]],[[1.]],[[1.]],[[0.7227624]],[[1.27301831]],[[0.96963735]],[[1.0979245]],[[1.56743454]],[[0.802326]],[[0.99097483]],[[0.89239158]],[[1.02958267]],[[1.26174426]],[[1.58558477]]
82,0.9697743338152771,[[1.03093899]],[[0.94210117]],[[nan]],[[nan]],[[nan]],[[nan]],[[nan]],[[nan]],[[0.9472995]],[[0.9464147]],[[0.91382825]],[[0.91887058]],[[1.029274]],[[0.65952381]],[[0.64072211]],[[0.69924812]],[[0.99451219]],[[1.05368817]],[[1.01422222]],[[nan]],[[nan]],[[1.00001453]],[[1.04017378]],[[0.81784612]],[[1.16666667]],[[nan]],[[nan]],[[nan]],[[1.70956472]],[[nan]],[[1.98024893]],[[nan]],[[nan]],[[0.86330662]],[[0.87188238]],[[0.9464147]],[[0.94653298]],[[0.99987691]],[[0.89581262]],[[1.0001251]],[[0.9848054]],[[0.94665315]],[[1.06783217]],[[1.05462073]],[[1.05654265]],[[0.71006944]],[[0.86953524]],[[0.87170395]],[[0.8674241]],[[1.07257326]],[[0.78409706]],[[1.23288156]],[[0.83673494]],[[1.049214]],[[0.92291394]],[[1.08383243]],[[0.90928752]],[[0.98529605]],[[0.91089076]],[[1.09595313]],[[0.90322804]],[[0.99067161]],[[0.99064708]],[[1.70154437]],[[1.31647241]],[[1.70117314]],[[-1.10531366]],[[-1.59572987]],[[0.43194399]],[[1.40318809]],[[2.29845912]],[[1.]],[[1.]],[[1.]],[[1.]],[[1.]],[[1.]],[[1.]],[[1.]],[[1.]],[[1.35461269]],[[1.17284272]],[[1.02331383]],[[1.08117373]],[[1.03691657]],[[1.13883008]],[[1.2385007]],[[0.98778826]],[[1.05734306]],[[0.89178986]],[[0.74938583]]
83,0.9806180825295551,[[1.019583]],[[0.86209008]],[[nan]],[[nan]],[[nan]],[[nan]],[[nan]],[[nan]],[[1.00481642]],[[0.99998917]],[[0.84553198]],[[0.98551683]],[[1.02176537]],[[0.82857143]],[[0.81089045]],[[0.82057276]],[[0.85798241]],[[1.02941176]],[[1.0122164]],[[nan]],[[inf]],[[0.98507463]],[[1.0242915]],[[0.86717074]],[[1.]],[[nan]],[[nan]],[[nan]],[[0.8716232]],[[nan]],[[1.24055367]],[[nan]],[[nan]],[[0.7026089]],[[1.06464997]],[[0.99998917]],[[0.8467151]],[[1.18101578]],[[0.84671122]],[[0.84675286]],[[0.97660142]],[[0.71695466]],[[1.0621416]],[[1.0430001]],[[0.99205772]],[[2.15110357]],[[0.98974691]],[[0.99025358]],[[0.98924162]],[[1.00131023]],[[1.03144734]],[[0.97327632]],[[1.01555165]],[[0.98649772]],[[0.97778756]],[[1.03488627]],[[0.83724506]],[[0.86130195]],[[0.97487442]],[[1.03636414]],[[0.85557559]],[[0.88210864]],[[1.00036383]],[[1.20509838]],[[0.90375675]],[[1.11790187]],[[6.44121107]],[[2.16810574]],[[0.18184666]],[[2.77086538]],[[1.68986905]],[[1.]],[[1.]],[[1.]],[[1.]],[[1.]],[[1.]],[[1.]],[[1.]],[[1.]],[[1.3303153]],[[1.19342191]],[[0.99645417]],[[1.0628539]],[[2.33578533]],[[1.63331125]],[[1.98197253]],[[0.97379781]],[[1.05750376]],[[1.15838434]],[[0.98786432]]
84,1.062884993025504,[[0.94095761]],[[2.26407049]],[[nan]],[[nan]],[[nan]],[[nan]],[[nan]],[[nan]],[[0.85008438]],[[0.84571849]],[[2.40613421]],[[0.90342514]],[[0.94983396]],[[1.625]],[[1.71087637]],[[1.58333333]],[[2.66393689]],[[0.92165899]],[[0.97276428]],[[nan]],[[nan]],[[0.79656863]],[[1.03093222]],[[1.5991191]],[[2.91666667]],[[nan]],[[nan]],[[nan]],[[0.24667037]],[[nan]],[[0.52662579]],[[nan]],[[nan]],[[0.44579516]],[[1.48272734]],[[0.84571849]],[[2.57090556]],[[0.32899509]],[[2.17408889]],[[3.04070765]],[[1.11488883]],[[7.81826694]],[[1.0298358]],[[0.97913418]],[[1.10651743]],[[1.01838624]],[[0.94033401]],[[0.94036398]],[[0.94032006]],[[1.23546871]],[[1.05269418]],[[0.95896041]],[[0.86670978]],[[0.82703564]],[[0.72938851]],[[1.60471133]],[[2.19521713]],[[3.25672281]],[[0.79352249]],[[1.35698047]],[[2.041598]],[[2.67010337]],[[1.10505375]],[[0.2650949]],[[0.82546755]],[[0.70874038]],[[-1.46596263]],[[0.21692243]],[[0.65327832]],[[0.16111918]],[[0.08681613]],[[1.]],[[1.]],[[1.]],[[1.]],[[1.]],[[1.]],[[1.]],[[1.]],[[1.]],[[2.96032231]],[[0.57403694]],[[1.24909263]],[[0.53324123]],[[1.62190607]],[[1.25872853]],[[1.54157863]],[[0.85500274]],[[0.90518288]],[[0.97611046]],[[0.53269861]]
85,0.9743119250560777,[[1.02672243]],[[0.71646188]],[[nan]],[[nan]],[[nan]],[[nan]],[[nan]],[[nan]],[[0.72344358]],[[0.72025352]],[[0.69781451]],[[0.70461441]],[[1.03877934]],[[0.75]],[[0.72200226]],[[0.71966874]],[[0.99037567]],[[1.03902439]],[[1.00929635]],[[nan]],[[0.06153846]],[[1.02828443]],[[0.99796748]],[[0.80030254]],[[0.75]],[[nan]],[[nan]],[[nan]],[[1.03391531]],[[nan]],[[1.72843268]],[[nan]],[[nan]],[[0.59817629]],[[0.98745591]],[[0.72025352]],[[0.7147837]],[[1.00763992]],[[0.51483706]],[[0.99243307]],[[0.91038089]],[[0.70936619]],[[0.91225697]],[[0.8689705]],[[0.9009595]],[[0.1641791]],[[1.01815658]],[[1.01901573]],[[1.01730189]],[[0.90748222]],[[0.91770803]],[[1.08026529]],[[0.689937]],[[0.74846219]],[[1.06196737]],[[0.92425875]],[[0.73659508]],[[0.68713198]],[[1.04269251]],[[0.94980452]],[[0.73067705]],[[0.69732062]],[[0.82682209]],[[0.56946573]],[[0.70487085]],[[0.77056186]],[[0.89787477]],[[1.13218396]],[[0.16508442]],[[0.31136501]],[[0.3176637]],[[1.]],[[1.]],[[1.]],[[1.]],[[1.]],[[1.]],[[1.]],[[1.]],[[1.]],[[1.85475625]],[[1.1960746]],[[0.99237825]],[[1.00617573]],[[1.50662439]],[[1.32747139]],[[1.80915897]],[[0.96171307]],[[1.09362206]],[[1.31089576]],[[1.28039157]]
86,0.9579078763119411,[[1.04501353]],[[0.8574869]],[[nan]],[[nan]],[[nan]],[[nan]],[[nan]],[[nan]],[[0.89792397]],[[0.89299825]],[[0.8205511]],[[0.85924639]],[[1.04587156]],[[0.77777778]],[[0.74366472]],[[0.8]],[[0.95496696]],[[1.05797101]],[[1.03268464]],[[nan]],[[0.30869565]],[[1.05571035]],[[1.06378601]],[[0.85452411]],[[1.]],[[nan]],[[nan]],[[nan]],[[0.24575534]],[[nan]],[[0.41668671]],[[nan]],[[nan]],[[0.58977187]],[[1.49611604]],[[0.89299825]],[[0.86572398]],[[1.03150364]],[[0.77309095]],[[0.9694611]],[[0.96492984]],[[0.83928496]],[[1.03052459]],[[0.98444478]],[[1.00450911]],[[0.81659667]],[[1.05598499]],[[1.06037922]],[[1.05194789]],[[0.98244802]],[[1.22513048]],[[0.8675213]],[[0.98814694]],[[0.83154847]],[[1.0317804]],[[0.97070227]],[[0.87903043]],[[0.85253471]],[[1.04962428]],[[0.95315348]],[[0.89054323]],[[0.84863685]],[[0.89483641]],[[1.5978726]],[[0.925785]],[[0.97064963]],[[3.00120554]],[[1.34462721]],[[7.5049658]],[[1.64831376]],[[1.8085732]],[[1.]],[[1.]],[[1.]],[[1.]],[[1.]],[[1.]],[[1.]],[[1.]],[[1.]],[[2.07374086]],[[0.80392666]],[[1.0462483]],[[1.05444655]],[[1.67310492]],[[1.48679362]],[[1.69623464]],[[0.96538476]],[[1.03660088]],[[1.06564578]],[[0.94509984]]
87,1.0029733335239412,[[0.99729945]],[[1.57055033]],[[nan]],[[nan]],[[nan]],[[nan]],[[nan]],[[nan]],[[1.10462148]],[[1.10078987]],[[1.57480317]],[[1.10761265]],[[1.00454545]],[[1.6]],[[1.59276018]],[[1.55]],[[1.42194046]],[[0.98093023]],[[1.01140351]],[[nan]],[[nan]],[[0.93795853]],[[1.0144971]],[[1.32911211]],[[1.66666667]],[[nan]],[[nan]],[[nan]],[[0.66277775]],[[nan]],[[1.12312808]],[[nan]],[[nan]],[[0.59011972]],[[1.15823902]],[[1.10078987]],[[1.71546225]],[[0.64167596]],[[1.88840138]],[[1.55858201]],[[1.09966801]],[[2.6736425]],[[1.01317949]],[[0.97354938]],[[1.0403183]],[[0.50868223]],[[1.08775593]],[[1.08672894]],[[1.08880458]],[[1.08695921]],[[1.24881204]],[[0.85416272]],[[1.22778488]],[[1.01569373]],[[0.95495419]],[[1.13290277]],[[1.66953613]],[[1.81466715]],[[1.0075353]],[[1.03274552]],[[1.60635006]],[[1.62488123]],[[1.22746212]],[[1.72357092]],[[0.93926516]],[[1.3196159]],[[-58.23067262]],[[1.38286736]],[[0.21642874]],[[0.89032986]],[[1.75240132]],[[1.]],[[1.]],[[1.]],[[1.]],[[1.]],[[1.]],[[1.]],[[1.]],[[1.]],[[1.68800305]],[[0.70805487]],[[1.22310612]],[[0.78407103]],[[1.62487901]],[[1.20099255]],[[1.49983681]],[[1.01592875]],[[0.92788391]],[[1.2056271]],[[0.75186192]]
88,0.9177055850442541,[[1.08986425]],[[0.78748845]],[[nan]],[[nan]],[[nan]],[[nan]],[[nan]],[[nan]],[[1.22235494]],[[1.21665215]],[[0.72255645]],[[1.12156616]],[[1.07079646]],[[1.125]],[[1.05061983]],[[1.03125]],[[0.64428045]],[[1.07943925]],[[1.07991453]],[[nan]],[[4.3605948]],[[1.18183474]],[[1.16396761]],[[1.4131232]],[[1.14285714]],[[nan]],[[nan]],[[nan]],[[1.79119531]],[[nan]],[[2.1974168]],[[nan]],[[nan]],[[0.81513853]],[[0.79209634]],[[1.21665215]],[[0.73419788]],[[1.6571124]],[[0.89326631]],[[0.6034983]],[[0.98540944]],[[0.44308581]],[[0.94870475]],[[0.92718818]],[[0.90758583]],[[0.71052632]],[[0.95711883]],[[0.95667926]],[[0.95771488]],[[1.00193822]],[[0.87505568]],[[1.15435476]],[[1.1370675]],[[1.30609812]],[[0.93368256]],[[1.08586963]],[[0.7093846]],[[0.76498972]],[[0.92116042]],[[1.10137836]],[[0.75266397]],[[0.82298643]],[[0.81922224]],[[2.72099052]],[[0.76244767]],[[1.22373502]],[[5.10589787]],[[1.70944198]],[[0.21077415]],[[1.28284239]],[[3.60129801]],[[1.]],[[1.]],[[1.]],[[1.]],[[1.]],[[1.]],[[1.]],[[1.]],[[1.]],[[1.50429306]],[[1.00172151]],[[1.09291317]],[[1.31866276]],[[1.28161132]],[[1.21864882]],[[1.7676625]],[[1.01031286]],[[1.08360686]],[[1.12978435]],[[0.99984973]]
89,1.04248261321652,[[0.95923582]],[[0.99695051]],[[nan]],[[nan]],[[nan]],[[nan]],[[nan]],[[nan]],[[0.7941508]],[[0.78950454]],[[1.03931746]],[[0.82789947]],[[0.95983936]],[[1.]],[[1.041841]],[[1.03333333]],[[1.25536665]],[[0.95435685]],[[0.95402299]],[[nan]],[[0.28384095]],[[0.99768519]],[[0.99105863]],[[1.01232661]],[[0.85714286]],[[nan]],[[nan]],[[nan]],[[1.290355]],[[nan]],[[1.81465416]],[[nan]],[[nan]],[[0.71107707]],[[0.89689632]],[[0.78950454]],[[1.07723625]],[[0.73289819]],[[0.85048308]],[[1.36444602]],[[0.97861086]],[[1.46983065]],[[0.88220835]],[[0.84293381]],[[0.75257732]],[[inf]],[[1.00755348]],[[1.00744176]],[[1.00765439]],[[0.87706124]],[[0.96884091]],[[1.02595709]],[[0.77708067]],[[0.7996802]],[[1.35184151]],[[0.69647012]],[[1.25230828]],[[0.89866273]],[[1.2848827]],[[0.75759333]],[[1.13251437]],[[0.86954033]],[[1.16356048]],[[3.19399893]],[[1.0468218]],[[1.61406212]],[[4.1562561]],[[1.52201492]],[[0.2591174]],[[5.25988144]],[[7.27453483]],[[1.]],[[1.]],[[1.]],[[1.]],[[1.]],[[1.]],[[1.]],[[1.]],[[1.]],[[1.86737506]],[[1.01885507]],[[1.08425316]],[[0.91558099]],[[inf]],[[1.47296142]],[[1.70290204]],[[1.0441578]],[[0.94933764]],[[1.05523054]],[[0.81398546]]
90,1.0499730762185502,[[0.95273642]],[[1.69505775]],[[nan]],[[nan]],[[nan]],[[nan]],[[nan]],[[nan]],[[0.90301627]],[[0.8998217]],[[1.77914654]],[[0.9478133]],[[0.95285947]],[[2.00694444]],[[2.10655382]],[[2.05882353]],[[1.87710779]],[[0.88888889]],[[0.9957328]],[[nan]],[[0.6875]],[[0.82421434]],[[1.04711631]],[[1.65847666]],[[2.]],[[nan]],[[nan]],[[nan]],[[0.13120867]],[[nan]],[[0.20294706]],[[nan]],[[nan]],[[0.64651513]],[[1.9262146]],[[0.8998217]],[[1.81914516]],[[0.49463937]],[[1.63690871]],[[2.02167888]],[[1.06623262]],[[3.67772372]],[[0.98004157]],[[0.93496917]],[[0.91552099]],[[1.54226919]],[[1.04618859]],[[1.04888668]],[[1.04381244]],[[0.85144962]],[[1.03031579]],[[0.96571272]],[[0.91197862]],[[0.88287366]],[[1.21667733]],[[0.85345944]],[[2.00389756]],[[1.67901871]],[[1.16473066]],[[0.87756326]],[[1.84835607]],[[1.60460832]],[[1.12026951]],[[0.39715406]],[[0.93410606]],[[0.83875607]],[[-0.74347327]],[[-2.35098083]],[[1.27946309]],[[0.18052042]],[[0.12433018]],[[1.]],[[1.]],[[1.]],[[1.]],[[1.]],[[1.]],[[1.]],[[1.]],[[1.]],[[1.69590597]],[[0.60302002]],[[1.19522513]],[[0.64160643]],[[1.27367572]],[[1.08115135]],[[1.33933178]],[[0.81235218]],[[0.94696841]],[[0.87965696]],[[0.55136587]]
91,0.9754635054813061,[[1.02535817]],[[0.9046043]],[[nan]],[[nan]],[[nan]],[[nan]],[[nan]],[[nan]],[[0.86907168]],[[0.86644918]],[[0.8822325]],[[0.84757864]],[[1.01449275]],[[0.91666667]],[[0.90357143]],[[0.87]],[[1.04121122]],[[1.05177994]],[[1.01589464]],[[0.94339623]],[[0.66037736]],[[1.00001965]],[[1.]],[[1.45162562]],[[1.11111111]],[[nan]],[[nan]],[[nan]],[[1.12764235]],[[nan]],[[1.21506272]],[[nan]],[[nan]],[[0.92805311]],[[0.94491026]],[[0.86644918]],[[0.91132289]],[[0.95079784]],[[0.78958659]],[[1.05216498]],[[0.97174367]],[[0.95890038]],[[0.99405543]],[[0.95051569]],[[1.01032913]],[[1.51282051]],[[1.04975406]],[[1.05010817]],[[1.04906696]],[[0.97932636]],[[1.0656391]],[[0.87578307]],[[0.8938446]],[[0.81042468]],[[0.68177101]],[[1.41614401]],[[0.75225038]],[[1.08427947]],[[0.73225565]],[[1.3668675]],[[0.77476063]],[[1.05861614]],[[0.99444039]],[[3.16122867]],[[2.04823243]],[[1.95927013]],[[-1.87936356]],[[-0.86698348]],[[1.68389531]],[[0.3022113]],[[2.05110183]],[[1.]],[[1.]],[[1.]],[[1.]],[[1.]],[[1.]],[[1.]],[[1.]],[[1.]],[[1.66651501]],[[1.52580079]],[[1.06709722]],[[1.01874647]],[[1.57830934]],[[1.24011012]],[[1.57423159]],[[1.04971873]],[[0.98738399]],[[1.27663553]],[[0.99374988]]
92,0.9825635282891929,[[1.01789559]],[[0.8858487]],[[nan]],[[nan]],[[nan]],[[nan]],[[nan]],[[nan]],[[0.81695045]],[[0.81258879]],[[0.87027462]],[[0.80258768]],[[1.02548544]],[[0.84090909]],[[0.81998568]],[[0.8372093]],[[1.08433624]],[[1.02697095]],[[1.02115915]],[[inf]],[[0.40431267]],[[0.97633136]],[[1.]],[[0.88105547]],[[2.66666667]],[[nan]],[[nan]],[[nan]],[[0.88188084]],[[nan]],[[1.13509678]],[[nan]],[[nan]],[[0.78205779]],[[1.05799707]],[[0.81258879]],[[0.89482552]],[[0.90809841]],[[0.727125]],[[1.10120377]],[[0.96084266]],[[0.98538626]],[[1.3825895]],[[1.3236159]],[[1.43809261]],[[inf]],[[1.03439959]],[[1.03434075]],[[1.03414775]],[[0.90632241]],[[1.04587852]],[[0.92339132]],[[0.83079885]],[[0.780635]],[[1.17637683]],[[0.88308576]],[[0.97051661]],[[0.84088618]],[[1.13938536]],[[0.89421169]],[[0.94289682]],[[0.83531944]],[[1.04943342]],[[0.59975649]],[[0.88659233]],[[0.81583305]],[[0.16751947]],[[-0.2204868]],[[1.17542487]],[[0.25252322]],[[0.25852513]],[[1.]],[[1.]],[[1.]],[[1.]],[[1.]],[[1.]],[[1.]],[[1.]],[[1.]],[[2.37193893]],[[1.02096524]],[[1.10569015]],[[0.92548073]],[[2.05477204]],[[1.32264151]],[[1.68873927]],[[0.87544548]],[[0.94041678]],[[1.1721446]],[[0.81022822]]
93,1.0276742931794844,[[0.97279434]],[[0.70629826]],[[nan]],[[nan]],[[nan]],[[nan]],[[nan]],[[nan]],[[0.57148204]],[[0.56884786]],[[0.72605098]],[[0.58746476]],[[0.98575942]],[[1.1]],[[1.1164019]],[[1.15386828]],[[1.23611981]],[[0.97512438]],[[0.95813301]],[[0.]],[[0.44117647]],[[1.04416448]],[[0.93774319]],[[1.18055556]],[[0.88888889]],[[nan]],[[nan]],[[nan]],[[0.54805155]],[[nan]],[[1.01719072]],[[nan]],[[nan]],[[0.53878997]],[[1.20481328]],[[0.56884786]],[[0.71688301]],[[0.79350756]],[[0.40779444]],[[1.26047639]],[[0.89256679]],[[0.90362082]],[[1.25597723]],[[1.19768079]],[[1.55555556]],[[0.59427966]],[[1.01779774]],[[1.02109135]],[[1.01441216]],[[0.92214363]],[[0.71631889]],[[1.72080679]],[[0.48144434]],[[0.74616102]],[[0.93328846]],[[1.07433794]],[[0.69255253]],[[0.74302726]],[[0.90082831]],[[1.11899512]],[[0.66687008]],[[0.74324001]],[[1.01854033]],[[0.92456322]],[[0.90152312]],[[1.17651697]],[[3.86977605]],[[-7.67182698]],[[0.53204996]],[[1.09472943]],[[0.85745072]],[[1.]],[[1.]],[[1.]],[[1.]],[[1.]],[[1.]],[[1.]],[[1.]],[[1.]],[[1.2566937]],[[1.36047786]],[[1.06793064]],[[1.00150159]],[[1.31448003]],[[1.08529016]],[[1.48560382]],[[1.14736842]],[[1.00909382]],[[1.17658329]],[[0.75808173]]
94,1.002448429039278,[[0.99767418]],[[0.76906361]],[[nan]],[[nan]],[[nan]],[[nan]],[[nan]],[[nan]],[[0.77924423]],[[0.77607694]],[[0.77085648]],[[0.78106084]],[[1.00832205]],[[0.875]],[[0.86787736]],[[0.86309524]],[[0.98732836]],[[0.99395973]],[[0.99865229]],[[0.]],[[0.83460366]],[[1.07716049]],[[0.92294715]],[[0.80981204]],[[0.77777778]],[[nan]],[[nan]],[[nan]],[[1.04521739]],[[nan]],[[1.47593329]],[[nan]],[[nan]],[[0.70818073]],[[0.9798632]],[[0.77607694]],[[0.76021675]],[[1.02117932]],[[0.58987812]],[[0.98000711]],[[0.93555197]],[[0.7452488]],[[1.31022074]],[[1.31781755]],[[1.22660781]],[[0.71114577]],[[1.03837302]],[[1.04097904]],[[1.03566256]],[[0.95647612]],[[0.83289971]],[[1.34424005]],[[0.70847791]],[[0.89880488]],[[1.13404508]],[[0.91691128]],[[0.80900362]],[[0.7271889]],[[1.07694774]],[[0.94578214]],[[0.79054276]],[[0.74062305]],[[0.94726533]],[[1.48167532]],[[0.9611241]],[[1.2504566]],[[-32.68694113]],[[-17.2602205]],[[0.48726298]],[[3.75907567]],[[3.09610283]],[[1.]],[[1.]],[[1.]],[[1.]],[[1.]],[[1.]],[[nan]],[[1.]],[[1.]],[[1.75065785]],[[1.67899057]],[[1.04874535]],[[1.17559233]],[[1.48035013]],[[1.40506282]],[[1.63261121]],[[1.04190215]],[[1.01906953]],[[1.10872461]],[[1.01009128]]
95,1.0933679623155246,[[0.91423952]],[[1.07321226]],[[nan]],[[nan]],[[nan]],[[nan]],[[nan]],[[nan]],[[0.80287397]],[[0.79865805]],[[1.17388519]],[[0.87818782]],[[0.90967159]],[[1.05263158]],[[1.15715691]],[[0.87402512]],[[1.33671847]],[[0.90454545]],[[0.91967213]],[[inf]],[[0.45032751]],[[0.88365562]],[[0.96969697]],[[1.21785106]],[[1.11111111]],[[nan]],[[nan]],[[nan]],[[0.88642597]],[[nan]],[[1.03612874]],[[nan]],[[nan]],[[0.85551772]],[[1.05515837]],[[0.79865805]],[[1.11778225]],[[0.71450426]],[[0.89272431]],[[1.3995817]],[[0.98600219]],[[1.56443176]],[[1.04556041]],[[0.98859193]],[[0.93335957]],[[inf]],[[0.947718]],[[0.94968907]],[[0.94589733]],[[1.12185738]],[[1.12412909]],[[0.85781612]],[[0.84652041]],[[0.73948824]],[[0.94109582]],[[1.05592815]],[[1.08434136]],[[1.14858335]],[[0.95308337]],[[1.04607254]],[[1.04425821]],[[1.09401102]],[[1.15184984]],[[2.39476332]],[[1.25616968]],[[1.51897891]],[[-4.97099917]],[[-2.72133395]],[[0.64577429]],[[19.65440675]],[[7.69702318]],[[1.]],[[1.]],[[1.]],[[1.]],[[1.]],[[1.]],[[1.]],[[1.]],[[1.]],[[2.01655204]],[[0.83929668]],[[1.11271221]],[[0.75069159]],[[1.40858889]],[[1.61447623]],[[1.80460622]],[[0.89583615]],[[0.90218073]],[[0.78658509]],[[0.74757992]]
96,0.9771262937936411,[[1.02370748]],[[0.83943853]],[[nan]],[[nan]],[[nan]],[[nan]],[[nan]],[[nan]],[[0.76422937]],[[0.76048445]],[[0.81999892]],[[0.7465367]],[[1.02830189]],[[0.80357143]],[[0.78145478]],[[0.86057692]],[[1.09851364]],[[1.04156663]],[[1.0157626]],[[0.64159292]],[[0.27939796]],[[0.96855346]],[[1.02509653]],[[0.80252022]],[[1.2]],[[nan]],[[nan]],[[nan]],[[1.08119307]],[[nan]],[[1.27156156]],[[nan]],[[nan]],[[0.85028708]],[[0.96465285]],[[0.76048445]],[[0.83781182]],[[0.9077415]],[[0.63712269]],[[1.10182115]],[[0.94728483]],[[0.92315776]],[[1.29609671]],[[1.28883048]],[[1.58267838]],[[2.56695157]],[[1.019966]],[[1.02518842]],[[1.0156164]],[[1.10030899]],[[1.13820229]],[[0.78999912]],[[0.8112971]],[[0.676023]],[[1.07469598]],[[0.91803142]],[[0.86849503]],[[0.80273525]],[[1.07931163]],[[0.90890262]],[[0.86020006]],[[0.78938719]],[[1.00576364]],[[0.60584134]],[[0.86884388]],[[0.80154183]],[[0.17720926]],[[0.26478739]],[[1.10723005]],[[0.22466673]],[[0.29091974]],[[1.]],[[1.]],[[1.]],[[1.]],[[1.]],[[1.]],[[1.]],[[1.]],[[1.]],[[2.17751107]],[[1.2771444]],[[1.04692862]],[[0.93112397]],[[2.60380591]],[[1.82014692]],[[2.0472865]],[[0.92713611]],[[0.98195852]],[[0.86111076]],[[0.84878567]]
97,1.1646582221735269,[[0.85883863]],[[0.99093453]],[[nan]],[[nan]],[[nan]],[[nan]],[[nan]],[[nan]],[[0.52379372]],[[0.52067612]],[[1.15382508]],[[0.60988514]],[[0.85485826]],[[0.89833333]],[[1.05088235]],[[1.10874704]],[[1.89190213]],[[0.83919598]],[[0.85775862]],[[0.]],[[0.26497253]],[[0.80434783]],[[1.]],[[1.07128984]],[[1.05]],[[nan]],[[nan]],[[nan]],[[0.0747047]],[[nan]],[[0.13659581]],[[nan]],[[nan]],[[0.54689153]],[[2.23315486]],[[0.52067612]],[[1.03894281]],[[0.50118067]],[[0.54094538]],[[1.99541236]],[[0.92687173]],[[2.07320662]],[[1.1674938]],[[1.10653803]],[[1.24094973]],[[1.42379672]],[[0.99946724]],[[1.00294552]],[[0.99628262]],[[1.02674809]],[[0.90714322]],[[1.19548336]],[[0.49544011]],[[0.56762403]],[[1.06470891]],[[0.9483736]],[[1.07204452]],[[1.0117222]],[[1.02225466]],[[0.98061715]],[[1.00385252]],[[0.98320804]],[[1.06524647]],[[0.6137736]],[[0.99240995]],[[0.83647307]],[[0.24535697]],[[0.32982413]],[[1.54520094]],[[0.18983672]],[[0.27088784]],[[1.]],[[1.]],[[1.]],[[1.]],[[1.]],[[1.]],[[1.]],[[1.]],[[1.]],[[1.85833446]],[[0.91177777]],[[1.17130123]],[[0.66492096]],[[1.4216499]],[[1.5848203]],[[1.88798776]],[[0.85643854]],[[0.9630395]],[[0.95460895]],[[0.68627335]]
